# == pyFAI calibration ==
# SplineFile: None
# PixelSize: 2.000e-04, 2.000e-04 m
# PONI: 1.995e-01, 2.016e-01 m
# Distance Sample to Detector: 1.79502286468 m
# Rotations: -0.004483 0.004646 0.000019 rad
# 
# == Fit2d calibration ==
# Distance Sample-beamCenter: 1795.060 mm
# Center: x=1048.052, y=1039.198 pix
# Tilt: 0.370 deg  TiltPlanRot: 46.021 deg
# 
# Wavelength: 1.4235e-11
# Polarization factor: None
# Normalization factor: 1.0
# --> /Volumes/desy/desy_2018/TiAlNi/TiAlNi_1-00051.txt
#       2th_deg             I 
  1.557975e-03    3.612970e+00
  4.673925e-03    3.261467e-02
  7.789875e-03    2.175153e+00
  1.090582e-02    5.101010e+00
  1.402177e-02    8.101061e+00
  1.713772e-02    5.265183e+00
  2.025367e-02    2.891709e+00
  2.336962e-02    1.813756e+00
  2.648557e-02    3.668155e+00
  2.960152e-02    3.599670e+00
  3.271747e-02    5.707205e+00
  3.583342e-02    6.833119e+00
  3.894937e-02    6.143823e+00
  4.206532e-02    5.444505e+00
  4.518127e-02    3.974351e+00
  4.829722e-02    4.187255e+00
  5.141317e-02    4.273089e+00
  5.452912e-02    7.340782e+00
  5.764507e-02    5.934709e+00
  6.076102e-02    2.655179e+00
  6.387697e-02    3.042988e+00
  6.699292e-02    6.249125e+00
  7.010887e-02    5.907280e+00
  7.322482e-02    3.543126e+00
  7.634077e-02    3.133326e+00
  7.945672e-02    4.822690e+00
  8.257267e-02    5.537551e+00
  8.568862e-02    5.147564e+00
  8.880457e-02    6.641363e+00
  9.192052e-02    6.501215e+00
  9.503647e-02    4.707908e+00
  9.815242e-02    4.343716e+00
  1.012684e-01    5.379342e+00
  1.043843e-01    6.262233e+00
  1.075003e-01    6.320910e+00
  1.106162e-01    7.302301e+00
  1.137322e-01    7.108456e+00
  1.168481e-01    6.658513e+00
  1.199641e-01    5.409941e+00
  1.230800e-01    5.200578e+00
  1.261960e-01    5.653462e+00
  1.293119e-01    5.818283e+00
  1.324279e-01    4.804655e+00
  1.355438e-01    5.046056e+00
  1.386598e-01    6.058844e+00
  1.417757e-01    6.490441e+00
  1.448917e-01    6.627483e+00
  1.480076e-01    6.136393e+00
  1.511236e-01    4.865807e+00
  1.542395e-01    5.700015e+00
  1.573555e-01    7.155249e+00
  1.604714e-01    8.398881e+00
  1.635874e-01    1.009179e+01
  1.667033e-01    1.227957e+01
  1.698193e-01    1.575872e+01
  1.729352e-01    1.723455e+01
  1.760512e-01    1.909055e+01
  1.791671e-01    2.151704e+01
  1.822831e-01    2.243762e+01
  1.853990e-01    2.389229e+01
  1.885150e-01    2.596721e+01
  1.916309e-01    2.805595e+01
  1.947469e-01    2.882347e+01
  1.978628e-01    3.041437e+01
  2.009788e-01    3.233762e+01
  2.040947e-01    3.447892e+01
  2.072107e-01    3.586030e+01
  2.103266e-01    3.750748e+01
  2.134426e-01    4.000970e+01
  2.165585e-01    4.213638e+01
  2.196745e-01    4.416376e+01
  2.227904e-01    4.530935e+01
  2.259064e-01    4.719204e+01
  2.290223e-01    4.923347e+01
  2.321383e-01    5.064975e+01
  2.352542e-01    5.190321e+01
  2.383702e-01    5.352360e+01
  2.414861e-01    5.626070e+01
  2.446021e-01    5.913417e+01
  2.477180e-01    6.146751e+01
  2.508340e-01    5.954274e+01
  2.539499e-01    5.867378e+01
  2.570659e-01    6.030675e+01
  2.601818e-01    6.358415e+01
  2.632978e-01    6.612387e+01
  2.664137e-01    6.778545e+01
  2.695297e-01    7.049512e+01
  2.726456e-01    7.320357e+01
  2.757616e-01    7.542109e+01
  2.788775e-01    7.701098e+01
  2.819935e-01    7.931973e+01
  2.851094e-01    8.172060e+01
  2.882254e-01    8.322169e+01
  2.913413e-01    8.382646e+01
  2.944573e-01    8.481749e+01
  2.975732e-01    8.590691e+01
  3.006892e-01    8.764984e+01
  3.038051e-01    8.864924e+01
  3.069211e-01    8.921452e+01
  3.100370e-01    9.005522e+01
  3.131530e-01    9.255732e+01
  3.162689e-01    9.419267e+01
  3.193849e-01    9.487718e+01
  3.225008e-01    9.528361e+01
  3.256168e-01    9.710175e+01
  3.287327e-01    9.805975e+01
  3.318487e-01    9.962354e+01
  3.349646e-01    1.005060e+02
  3.380806e-01    1.026805e+02
  3.411965e-01    1.052619e+02
  3.443125e-01    1.069908e+02
  3.474284e-01    1.071652e+02
  3.505444e-01    1.082454e+02
  3.536603e-01    1.101994e+02
  3.567763e-01    1.122324e+02
  3.598922e-01    1.143173e+02
  3.630082e-01    1.162412e+02
  3.661241e-01    1.188969e+02
  3.692401e-01    1.211678e+02
  3.723560e-01    1.220748e+02
  3.754720e-01    1.233772e+02
  3.785879e-01    1.248216e+02
  3.817039e-01    1.271383e+02
  3.848198e-01    1.287618e+02
  3.879358e-01    1.298921e+02
  3.910517e-01    1.313706e+02
  3.941677e-01    1.335509e+02
  3.972836e-01    1.342173e+02
  4.003996e-01    1.356279e+02
  4.035155e-01    1.375537e+02
  4.066315e-01    1.396051e+02
  4.097474e-01    1.409799e+02
  4.128634e-01    1.428841e+02
  4.159793e-01    1.453302e+02
  4.190953e-01    1.477311e+02
  4.222112e-01    1.497823e+02
  4.253272e-01    1.517775e+02
  4.284431e-01    1.528155e+02
  4.315591e-01    1.546095e+02
  4.346750e-01    1.567664e+02
  4.377910e-01    1.587866e+02
  4.409069e-01    1.609230e+02
  4.440229e-01    1.629564e+02
  4.471388e-01    1.645425e+02
  4.502548e-01    1.665514e+02
  4.533707e-01    1.688954e+02
  4.564867e-01    1.709655e+02
  4.596026e-01    1.725706e+02
  4.627186e-01    1.732583e+02
  4.658345e-01    1.746431e+02
  4.689505e-01    1.771805e+02
  4.720664e-01    1.796390e+02
  4.751824e-01    1.812579e+02
  4.782983e-01    1.828816e+02
  4.814143e-01    1.852679e+02
  4.845302e-01    1.872382e+02
  4.876462e-01    1.886992e+02
  4.907621e-01    1.890475e+02
  4.938781e-01    1.888487e+02
  4.969940e-01    1.899276e+02
  5.001100e-01    1.907008e+02
  5.032259e-01    1.905498e+02
  5.063419e-01    1.899210e+02
  5.094578e-01    1.903201e+02
  5.125738e-01    1.897159e+02
  5.156897e-01    1.898987e+02
  5.188057e-01    1.905233e+02
  5.219216e-01    1.912650e+02
  5.250376e-01    1.919953e+02
  5.281535e-01    1.927703e+02
  5.312695e-01    1.929300e+02
  5.343854e-01    1.930433e+02
  5.375014e-01    1.943593e+02
  5.406173e-01    1.951460e+02
  5.437333e-01    1.955262e+02
  5.468492e-01    1.952981e+02
  5.499652e-01    1.957387e+02
  5.530811e-01    1.963090e+02
  5.561971e-01    1.965993e+02
  5.593130e-01    1.958836e+02
  5.624290e-01    1.952803e+02
  5.655449e-01    1.951265e+02
  5.686609e-01    1.953393e+02
  5.717768e-01    1.955668e+02
  5.748928e-01    1.942630e+02
  5.780087e-01    1.930658e+02
  5.811247e-01    1.920771e+02
  5.842406e-01    1.919372e+02
  5.873566e-01    1.922871e+02
  5.904725e-01    1.921476e+02
  5.935885e-01    1.920331e+02
  5.967044e-01    1.916577e+02
  5.998204e-01    1.914531e+02
  6.029363e-01    1.909856e+02
  6.060523e-01    1.913335e+02
  6.091682e-01    1.911575e+02
  6.122842e-01    1.907497e+02
  6.154001e-01    1.896854e+02
  6.185161e-01    1.894599e+02
  6.216320e-01    1.894130e+02
  6.247480e-01    1.896526e+02
  6.278639e-01    1.898246e+02
  6.309799e-01    1.898362e+02
  6.340958e-01    1.897798e+02
  6.372118e-01    1.898874e+02
  6.403277e-01    1.900908e+02
  6.434437e-01    1.905473e+02
  6.465596e-01    1.911725e+02
  6.496756e-01    1.909131e+02
  6.527915e-01    1.908546e+02
  6.559075e-01    1.903271e+02
  6.590234e-01    1.899484e+02
  6.621394e-01    1.896657e+02
  6.652553e-01    1.899885e+02
  6.683713e-01    1.901662e+02
  6.714872e-01    1.897005e+02
  6.746032e-01    1.887749e+02
  6.777191e-01    1.882128e+02
  6.808351e-01    1.881753e+02
  6.839510e-01    1.881688e+02
  6.870670e-01    1.886727e+02
  6.901829e-01    1.885564e+02
  6.932989e-01    1.888173e+02
  6.964148e-01    1.884444e+02
  6.995308e-01    1.880742e+02
  7.026467e-01    1.875878e+02
  7.057627e-01    1.874574e+02
  7.088786e-01    1.868659e+02
  7.119946e-01    1.876665e+02
  7.151105e-01    1.876718e+02
  7.182265e-01    1.879041e+02
  7.213424e-01    1.879580e+02
  7.244584e-01    1.875516e+02
  7.275743e-01    1.863849e+02
  7.306903e-01    1.849971e+02
  7.338062e-01    1.845387e+02
  7.369222e-01    1.851363e+02
  7.400381e-01    1.860103e+02
  7.431541e-01    1.862049e+02
  7.462700e-01    1.858114e+02
  7.493860e-01    1.845077e+02
  7.525019e-01    1.839106e+02
  7.556179e-01    1.841609e+02
  7.587338e-01    1.843387e+02
  7.618498e-01    1.838400e+02
  7.649657e-01    1.831585e+02
  7.680817e-01    1.831483e+02
  7.711976e-01    1.837630e+02
  7.743136e-01    1.833335e+02
  7.774295e-01    1.829349e+02
  7.805455e-01    1.821043e+02
  7.836614e-01    1.818609e+02
  7.867774e-01    1.809384e+02
  7.898933e-01    1.810704e+02
  7.930093e-01    1.804377e+02
  7.961252e-01    1.801441e+02
  7.992412e-01    1.793670e+02
  8.023571e-01    1.795819e+02
  8.054731e-01    1.795828e+02
  8.085890e-01    1.795360e+02
  8.117050e-01    1.786563e+02
  8.148209e-01    1.777721e+02
  8.179369e-01    1.767713e+02
  8.210528e-01    1.768696e+02
  8.241688e-01    1.768385e+02
  8.272847e-01    1.772020e+02
  8.304007e-01    1.766399e+02
  8.335166e-01    1.760139e+02
  8.366326e-01    1.754879e+02
  8.397485e-01    1.751799e+02
  8.428645e-01    1.750123e+02
  8.459804e-01    1.748987e+02
  8.490964e-01    1.747115e+02
  8.522123e-01    1.745995e+02
  8.553283e-01    1.739243e+02
  8.584442e-01    1.734726e+02
  8.615602e-01    1.734092e+02
  8.646761e-01    1.728360e+02
  8.677921e-01    1.728700e+02
  8.709080e-01    1.720162e+02
  8.740240e-01    1.718608e+02
  8.771399e-01    1.718887e+02
  8.802559e-01    1.717267e+02
  8.833718e-01    1.708372e+02
  8.864878e-01    1.707457e+02
  8.896037e-01    1.703916e+02
  8.927197e-01    1.699961e+02
  8.958356e-01    1.693826e+02
  8.989516e-01    1.695667e+02
  9.020675e-01    1.688652e+02
  9.051835e-01    1.685617e+02
  9.082994e-01    1.681466e+02
  9.114154e-01    1.683028e+02
  9.145313e-01    1.675016e+02
  9.176473e-01    1.668259e+02
  9.207632e-01    1.662940e+02
  9.238792e-01    1.664476e+02
  9.269951e-01    1.663620e+02
  9.301111e-01    1.661718e+02
  9.332270e-01    1.656611e+02
  9.363430e-01    1.654519e+02
  9.394589e-01    1.649009e+02
  9.425749e-01    1.650267e+02
  9.456908e-01    1.644775e+02
  9.488068e-01    1.638624e+02
  9.519227e-01    1.632332e+02
  9.550387e-01    1.633407e+02
  9.581546e-01    1.628579e+02
  9.612706e-01    1.622037e+02
  9.643865e-01    1.613387e+02
  9.675025e-01    1.614042e+02
  9.706184e-01    1.611155e+02
  9.737344e-01    1.614700e+02
  9.768503e-01    1.612742e+02
  9.799663e-01    1.612018e+02
  9.830822e-01    1.612469e+02
  9.861982e-01    1.606856e+02
  9.893141e-01    1.595950e+02
  9.924301e-01    1.585401e+02
  9.955460e-01    1.581379e+02
  9.986620e-01    1.582585e+02
  1.001778e+00    1.580861e+02
  1.004894e+00    1.577747e+02
  1.008010e+00    1.568712e+02
  1.011126e+00    1.565920e+02
  1.014242e+00    1.559743e+02
  1.017358e+00    1.552410e+02
  1.020474e+00    1.546833e+02
  1.023590e+00    1.550053e+02
  1.026706e+00    1.549256e+02
  1.029821e+00    1.548243e+02
  1.032937e+00    1.544283e+02
  1.036053e+00    1.539493e+02
  1.039169e+00    1.529497e+02
  1.042285e+00    1.526733e+02
  1.045401e+00    1.522291e+02
  1.048517e+00    1.522688e+02
  1.051633e+00    1.523517e+02
  1.054749e+00    1.523829e+02
  1.057865e+00    1.519763e+02
  1.060981e+00    1.513663e+02
  1.064097e+00    1.509232e+02
  1.067213e+00    1.509931e+02
  1.070329e+00    1.506234e+02
  1.073445e+00    1.503293e+02
  1.076561e+00    1.491528e+02
  1.079677e+00    1.492258e+02
  1.082793e+00    1.491532e+02
  1.085909e+00    1.488392e+02
  1.089025e+00    1.478076e+02
  1.092140e+00    1.478631e+02
  1.095256e+00    1.481118e+02
  1.098372e+00    1.480331e+02
  1.101488e+00    1.476919e+02
  1.104604e+00    1.471273e+02
  1.107720e+00    1.467844e+02
  1.110836e+00    1.463385e+02
  1.113952e+00    1.460790e+02
  1.117068e+00    1.460422e+02
  1.120184e+00    1.460514e+02
  1.123300e+00    1.455172e+02
  1.126416e+00    1.451242e+02
  1.129532e+00    1.448610e+02
  1.132648e+00    1.442287e+02
  1.135764e+00    1.438041e+02
  1.138880e+00    1.433577e+02
  1.141996e+00    1.434301e+02
  1.145112e+00    1.428730e+02
  1.148228e+00    1.424516e+02
  1.151344e+00    1.418748e+02
  1.154459e+00    1.417774e+02
  1.157575e+00    1.418769e+02
  1.160691e+00    1.418129e+02
  1.163807e+00    1.411243e+02
  1.166923e+00    1.406609e+02
  1.170039e+00    1.405942e+02
  1.173155e+00    1.402144e+02
  1.176271e+00    1.395984e+02
  1.179387e+00    1.388110e+02
  1.182503e+00    1.387767e+02
  1.185619e+00    1.392161e+02
  1.188735e+00    1.393568e+02
  1.191851e+00    1.394606e+02
  1.194967e+00    1.391793e+02
  1.198083e+00    1.388846e+02
  1.201199e+00    1.384474e+02
  1.204315e+00    1.384670e+02
  1.207431e+00    1.385045e+02
  1.210547e+00    1.385550e+02
  1.213663e+00    1.375183e+02
  1.216778e+00    1.369512e+02
  1.219894e+00    1.365262e+02
  1.223010e+00    1.367363e+02
  1.226126e+00    1.365464e+02
  1.229242e+00    1.364141e+02
  1.232358e+00    1.364537e+02
  1.235474e+00    1.363176e+02
  1.238590e+00    1.357797e+02
  1.241706e+00    1.355540e+02
  1.244822e+00    1.353682e+02
  1.247938e+00    1.351553e+02
  1.251054e+00    1.346337e+02
  1.254170e+00    1.345277e+02
  1.257286e+00    1.339278e+02
  1.260402e+00    1.334737e+02
  1.263518e+00    1.329498e+02
  1.266634e+00    1.326979e+02
  1.269750e+00    1.327095e+02
  1.272866e+00    1.325745e+02
  1.275982e+00    1.322612e+02
  1.279097e+00    1.316761e+02
  1.282213e+00    1.316169e+02
  1.285329e+00    1.319371e+02
  1.288445e+00    1.319928e+02
  1.291561e+00    1.319652e+02
  1.294677e+00    1.318499e+02
  1.297793e+00    1.312059e+02
  1.300909e+00    1.303759e+02
  1.304025e+00    1.295894e+02
  1.307141e+00    1.294598e+02
  1.310257e+00    1.296377e+02
  1.313373e+00    1.296224e+02
  1.316489e+00    1.293522e+02
  1.319605e+00    1.285139e+02
  1.322721e+00    1.280962e+02
  1.325837e+00    1.279652e+02
  1.328953e+00    1.279246e+02
  1.332069e+00    1.278889e+02
  1.335185e+00    1.277453e+02
  1.338301e+00    1.271523e+02
  1.341416e+00    1.271520e+02
  1.344532e+00    1.270900e+02
  1.347648e+00    1.270737e+02
  1.350764e+00    1.266865e+02
  1.353880e+00    1.266574e+02
  1.356996e+00    1.265064e+02
  1.360112e+00    1.261318e+02
  1.363228e+00    1.259356e+02
  1.366344e+00    1.257644e+02
  1.369460e+00    1.256283e+02
  1.372576e+00    1.258678e+02
  1.375692e+00    1.257306e+02
  1.378808e+00    1.256129e+02
  1.381924e+00    1.253532e+02
  1.385040e+00    1.251723e+02
  1.388156e+00    1.246756e+02
  1.391272e+00    1.241070e+02
  1.394388e+00    1.240232e+02
  1.397504e+00    1.239117e+02
  1.400619e+00    1.238183e+02
  1.403735e+00    1.236369e+02
  1.406851e+00    1.235638e+02
  1.409967e+00    1.234641e+02
  1.413083e+00    1.233507e+02
  1.416199e+00    1.229909e+02
  1.419315e+00    1.223864e+02
  1.422431e+00    1.220938e+02
  1.425547e+00    1.216868e+02
  1.428663e+00    1.214527e+02
  1.431779e+00    1.214052e+02
  1.434895e+00    1.213535e+02
  1.438011e+00    1.211335e+02
  1.441127e+00    1.205039e+02
  1.444243e+00    1.205560e+02
  1.447359e+00    1.208628e+02
  1.450475e+00    1.205643e+02
  1.453591e+00    1.204459e+02
  1.456707e+00    1.200049e+02
  1.459823e+00    1.198332e+02
  1.462938e+00    1.192365e+02
  1.466054e+00    1.188730e+02
  1.469170e+00    1.190131e+02
  1.472286e+00    1.189108e+02
  1.475402e+00    1.190576e+02
  1.478518e+00    1.189426e+02
  1.481634e+00    1.186195e+02
  1.484750e+00    1.181770e+02
  1.487866e+00    1.181372e+02
  1.490982e+00    1.179527e+02
  1.494098e+00    1.174851e+02
  1.497214e+00    1.171593e+02
  1.500330e+00    1.175012e+02
  1.503446e+00    1.178098e+02
  1.506562e+00    1.179213e+02
  1.509678e+00    1.175475e+02
  1.512794e+00    1.172918e+02
  1.515910e+00    1.170738e+02
  1.519026e+00    1.166954e+02
  1.522142e+00    1.164858e+02
  1.525257e+00    1.163158e+02
  1.528373e+00    1.161543e+02
  1.531489e+00    1.159865e+02
  1.534605e+00    1.157684e+02
  1.537721e+00    1.155191e+02
  1.540837e+00    1.152466e+02
  1.543953e+00    1.151201e+02
  1.547069e+00    1.152140e+02
  1.550185e+00    1.150038e+02
  1.553301e+00    1.146754e+02
  1.556417e+00    1.144143e+02
  1.559533e+00    1.142834e+02
  1.562649e+00    1.138773e+02
  1.565765e+00    1.136997e+02
  1.568881e+00    1.136717e+02
  1.571997e+00    1.138855e+02
  1.575113e+00    1.140059e+02
  1.578229e+00    1.145747e+02
  1.581345e+00    1.155638e+02
  1.584461e+00    1.174484e+02
  1.587576e+00    1.199028e+02
  1.590692e+00    1.222564e+02
  1.593808e+00    1.231854e+02
  1.596924e+00    1.225430e+02
  1.600040e+00    1.203136e+02
  1.603156e+00    1.173843e+02
  1.606272e+00    1.150532e+02
  1.609388e+00    1.141218e+02
  1.612504e+00    1.131652e+02
  1.615620e+00    1.123133e+02
  1.618736e+00    1.120850e+02
  1.621852e+00    1.120975e+02
  1.624968e+00    1.118137e+02
  1.628084e+00    1.113339e+02
  1.631200e+00    1.110811e+02
  1.634316e+00    1.109300e+02
  1.637432e+00    1.107288e+02
  1.640548e+00    1.104508e+02
  1.643664e+00    1.103866e+02
  1.646780e+00    1.102935e+02
  1.649895e+00    1.106218e+02
  1.653011e+00    1.104734e+02
  1.656127e+00    1.103519e+02
  1.659243e+00    1.100496e+02
  1.662359e+00    1.099384e+02
  1.665475e+00    1.096625e+02
  1.668591e+00    1.094570e+02
  1.671707e+00    1.091834e+02
  1.674823e+00    1.091786e+02
  1.677939e+00    1.089758e+02
  1.681055e+00    1.091437e+02
  1.684171e+00    1.088367e+02
  1.687287e+00    1.087022e+02
  1.690403e+00    1.084858e+02
  1.693519e+00    1.082423e+02
  1.696635e+00    1.082229e+02
  1.699751e+00    1.084367e+02
  1.702867e+00    1.086687e+02
  1.705983e+00    1.085419e+02
  1.709099e+00    1.081730e+02
  1.712214e+00    1.076698e+02
  1.715330e+00    1.075388e+02
  1.718446e+00    1.076167e+02
  1.721562e+00    1.083640e+02
  1.724678e+00    1.092716e+02
  1.727794e+00    1.114127e+02
  1.730910e+00    1.150555e+02
  1.734026e+00    1.184993e+02
  1.737142e+00    1.211273e+02
  1.740258e+00    1.219310e+02
  1.743374e+00    1.203371e+02
  1.746490e+00    1.160294e+02
  1.749606e+00    1.116519e+02
  1.752722e+00    1.089095e+02
  1.755838e+00    1.077241e+02
  1.758954e+00    1.069034e+02
  1.762070e+00    1.062535e+02
  1.765186e+00    1.057877e+02
  1.768302e+00    1.056353e+02
  1.771418e+00    1.056949e+02
  1.774533e+00    1.058582e+02
  1.777649e+00    1.062434e+02
  1.780765e+00    1.063294e+02
  1.783881e+00    1.061414e+02
  1.786997e+00    1.058824e+02
  1.790113e+00    1.056027e+02
  1.793229e+00    1.059348e+02
  1.796345e+00    1.070400e+02
  1.799461e+00    1.089112e+02
  1.802577e+00    1.131824e+02
  1.805693e+00    1.213932e+02
  1.808809e+00    1.328002e+02
  1.811925e+00    1.432684e+02
  1.815041e+00    1.492181e+02
  1.818157e+00    1.473783e+02
  1.821273e+00    1.384869e+02
  1.824389e+00    1.266617e+02
  1.827505e+00    1.166112e+02
  1.830621e+00    1.101057e+02
  1.833737e+00    1.066421e+02
  1.836852e+00    1.051308e+02
  1.839968e+00    1.051174e+02
  1.843084e+00    1.047645e+02
  1.846200e+00    1.041658e+02
  1.849316e+00    1.038487e+02
  1.852432e+00    1.037604e+02
  1.855548e+00    1.037891e+02
  1.858664e+00    1.032985e+02
  1.861780e+00    1.032549e+02
  1.864896e+00    1.028509e+02
  1.868012e+00    1.025855e+02
  1.871128e+00    1.024434e+02
  1.874244e+00    1.022363e+02
  1.877360e+00    1.021857e+02
  1.880476e+00    1.022538e+02
  1.883592e+00    1.024119e+02
  1.886708e+00    1.022499e+02
  1.889824e+00    1.019030e+02
  1.892940e+00    1.012514e+02
  1.896056e+00    1.007766e+02
  1.899171e+00    1.005571e+02
  1.902287e+00    1.003901e+02
  1.905403e+00    1.002220e+02
  1.908519e+00    1.002994e+02
  1.911635e+00    1.006580e+02
  1.914751e+00    1.007273e+02
  1.917867e+00    1.002501e+02
  1.920983e+00    9.985637e+01
  1.924099e+00    9.941811e+01
  1.927215e+00    9.956776e+01
  1.930331e+00    9.954084e+01
  1.933447e+00    9.972832e+01
  1.936563e+00    9.939951e+01
  1.939679e+00    9.896618e+01
  1.942795e+00    9.868720e+01
  1.945911e+00    9.894542e+01
  1.949027e+00    9.906680e+01
  1.952143e+00    9.869823e+01
  1.955259e+00    9.881200e+01
  1.958375e+00    9.889041e+01
  1.961490e+00    9.873792e+01
  1.964606e+00    9.862008e+01
  1.967722e+00    9.849297e+01
  1.970838e+00    9.823393e+01
  1.973954e+00    9.804607e+01
  1.977070e+00    9.802368e+01
  1.980186e+00    9.808482e+01
  1.983302e+00    9.814413e+01
  1.986418e+00    9.806018e+01
  1.989534e+00    9.798274e+01
  1.992650e+00    9.811465e+01
  1.995766e+00    9.862375e+01
  1.998882e+00    9.986353e+01
  2.001998e+00    1.009568e+02
  2.005114e+00    1.012008e+02
  2.008230e+00    1.005037e+02
  2.011346e+00    9.995165e+01
  2.014462e+00    9.934534e+01
  2.017578e+00    9.814139e+01
  2.020694e+00    9.704786e+01
  2.023809e+00    9.652126e+01
  2.026925e+00    9.684425e+01
  2.030041e+00    9.686994e+01
  2.033157e+00    9.720618e+01
  2.036273e+00    9.730629e+01
  2.039389e+00    9.745070e+01
  2.042505e+00    9.687386e+01
  2.045621e+00    9.734594e+01
  2.048737e+00    9.796484e+01
  2.051853e+00    9.865715e+01
  2.054969e+00    9.878478e+01
  2.058085e+00    9.884618e+01
  2.061201e+00    9.911288e+01
  2.064317e+00    9.911719e+01
  2.067433e+00    9.899373e+01
  2.070549e+00    9.859636e+01
  2.073665e+00    9.824107e+01
  2.076781e+00    9.801943e+01
  2.079897e+00    9.777865e+01
  2.083013e+00    9.719608e+01
  2.086128e+00    9.710902e+01
  2.089244e+00    9.674467e+01
  2.092360e+00    9.632964e+01
  2.095476e+00    9.604796e+01
  2.098592e+00    9.577368e+01
  2.101708e+00    9.537488e+01
  2.104824e+00    9.533675e+01
  2.107940e+00    9.539551e+01
  2.111056e+00    9.528122e+01
  2.114172e+00    9.487897e+01
  2.117288e+00    9.481026e+01
  2.120404e+00    9.454865e+01
  2.123520e+00    9.449268e+01
  2.126636e+00    9.424710e+01
  2.129752e+00    9.424698e+01
  2.132868e+00    9.435081e+01
  2.135984e+00    9.450809e+01
  2.139100e+00    9.444167e+01
  2.142216e+00    9.427916e+01
  2.145332e+00    9.422009e+01
  2.148447e+00    9.430619e+01
  2.151563e+00    9.417374e+01
  2.154679e+00    9.394456e+01
  2.157795e+00    9.386742e+01
  2.160911e+00    9.339195e+01
  2.164027e+00    9.350563e+01
  2.167143e+00    9.352668e+01
  2.170259e+00    9.325657e+01
  2.173375e+00    9.337276e+01
  2.176491e+00    9.353054e+01
  2.179607e+00    9.371443e+01
  2.182723e+00    9.352631e+01
  2.185839e+00    9.338560e+01
  2.188955e+00    9.343922e+01
  2.192071e+00    9.358346e+01
  2.195187e+00    9.309805e+01
  2.198303e+00    9.238943e+01
  2.201419e+00    9.209965e+01
  2.204535e+00    9.218372e+01
  2.207651e+00    9.202437e+01
  2.210766e+00    9.216287e+01
  2.213882e+00    9.252963e+01
  2.216998e+00    9.283470e+01
  2.220114e+00    9.268029e+01
  2.223230e+00    9.268250e+01
  2.226346e+00    9.246172e+01
  2.229462e+00    9.234248e+01
  2.232578e+00    9.196407e+01
  2.235694e+00    9.165233e+01
  2.238810e+00    9.165466e+01
  2.241926e+00    9.174226e+01
  2.245042e+00    9.208987e+01
  2.248158e+00    9.236650e+01
  2.251274e+00    9.287776e+01
  2.254390e+00    9.282704e+01
  2.257506e+00    9.270985e+01
  2.260622e+00    9.297897e+01
  2.263738e+00    9.310849e+01
  2.266854e+00    9.258995e+01
  2.269970e+00    9.189626e+01
  2.273085e+00    9.148946e+01
  2.276201e+00    9.153594e+01
  2.279317e+00    9.134576e+01
  2.282433e+00    9.114446e+01
  2.285549e+00    9.080466e+01
  2.288665e+00    9.071120e+01
  2.291781e+00    9.068266e+01
  2.294897e+00    9.104237e+01
  2.298013e+00    9.126145e+01
  2.301129e+00    9.129142e+01
  2.304245e+00    9.122210e+01
  2.307361e+00    9.147541e+01
  2.310477e+00    9.149078e+01
  2.313593e+00    9.123486e+01
  2.316709e+00    9.116019e+01
  2.319825e+00    9.096818e+01
  2.322941e+00    9.043503e+01
  2.326057e+00    9.015685e+01
  2.329173e+00    8.983959e+01
  2.332289e+00    9.013821e+01
  2.335404e+00    9.007458e+01
  2.338520e+00    9.058987e+01
  2.341636e+00    9.069306e+01
  2.344752e+00    9.119256e+01
  2.347868e+00    9.178853e+01
  2.350984e+00    9.287347e+01
  2.354100e+00    9.410587e+01
  2.357216e+00    9.503481e+01
  2.360332e+00    9.515565e+01
  2.363448e+00    9.432822e+01
  2.366564e+00    9.336422e+01
  2.369680e+00    9.164385e+01
  2.372796e+00    9.038888e+01
  2.375912e+00    8.975199e+01
  2.379028e+00    8.932307e+01
  2.382144e+00    8.899809e+01
  2.385260e+00    8.865063e+01
  2.388376e+00    8.844579e+01
  2.391492e+00    8.850188e+01
  2.394608e+00    8.877586e+01
  2.397723e+00    8.905972e+01
  2.400839e+00    8.921931e+01
  2.403955e+00    8.912805e+01
  2.407071e+00    8.886042e+01
  2.410187e+00    8.877061e+01
  2.413303e+00    8.854911e+01
  2.416419e+00    8.864603e+01
  2.419535e+00    8.870242e+01
  2.422651e+00    8.879296e+01
  2.425767e+00    8.890451e+01
  2.428883e+00    8.920261e+01
  2.431999e+00    8.934236e+01
  2.435115e+00    8.911931e+01
  2.438231e+00    8.883253e+01
  2.441347e+00    8.910347e+01
  2.444463e+00    8.900605e+01
  2.447579e+00    8.900327e+01
  2.450695e+00    8.889621e+01
  2.453811e+00    8.879126e+01
  2.456927e+00    8.853790e+01
  2.460042e+00    8.861207e+01
  2.463158e+00    8.870650e+01
  2.466274e+00    8.841536e+01
  2.469390e+00    8.822913e+01
  2.472506e+00    8.796273e+01
  2.475622e+00    8.801514e+01
  2.478738e+00    8.789633e+01
  2.481854e+00    8.761419e+01
  2.484970e+00    8.745544e+01
  2.488086e+00    8.753429e+01
  2.491202e+00    8.739496e+01
  2.494318e+00    8.742932e+01
  2.497434e+00    8.733866e+01
  2.500550e+00    8.742653e+01
  2.503666e+00    8.743024e+01
  2.506782e+00    8.709621e+01
  2.509898e+00    8.671478e+01
  2.513014e+00    8.629438e+01
  2.516130e+00    8.644481e+01
  2.519246e+00    8.668922e+01
  2.522361e+00    8.700371e+01
  2.525477e+00    8.716976e+01
  2.528593e+00    8.705403e+01
  2.531709e+00    8.706766e+01
  2.534825e+00    8.703854e+01
  2.537941e+00    8.693394e+01
  2.541057e+00    8.686415e+01
  2.544173e+00    8.686076e+01
  2.547289e+00    8.694223e+01
  2.550405e+00    8.704087e+01
  2.553521e+00    8.702446e+01
  2.556637e+00    8.690913e+01
  2.559753e+00    8.683903e+01
  2.562869e+00    8.672603e+01
  2.565985e+00    8.692765e+01
  2.569101e+00    8.703710e+01
  2.572217e+00    8.707497e+01
  2.575333e+00    8.693887e+01
  2.578449e+00    8.676832e+01
  2.581565e+00    8.651198e+01
  2.584680e+00    8.644360e+01
  2.587796e+00    8.661382e+01
  2.590912e+00    8.651650e+01
  2.594028e+00    8.667218e+01
  2.597144e+00    8.672953e+01
  2.600260e+00    8.660616e+01
  2.603376e+00    8.643286e+01
  2.606492e+00    8.630051e+01
  2.609608e+00    8.645095e+01
  2.612724e+00    8.688663e+01
  2.615840e+00    8.685555e+01
  2.618956e+00    8.635990e+01
  2.622072e+00    8.612277e+01
  2.625188e+00    8.627009e+01
  2.628304e+00    8.659702e+01
  2.631420e+00    8.692028e+01
  2.634536e+00    8.723418e+01
  2.637652e+00    8.711930e+01
  2.640768e+00    8.673904e+01
  2.643884e+00    8.654507e+01
  2.646999e+00    8.635777e+01
  2.650115e+00    8.636524e+01
  2.653231e+00    8.619093e+01
  2.656347e+00    8.628616e+01
  2.659463e+00    8.646500e+01
  2.662579e+00    8.648455e+01
  2.665695e+00    8.621572e+01
  2.668811e+00    8.609654e+01
  2.671927e+00    8.598215e+01
  2.675043e+00    8.611079e+01
  2.678159e+00    8.650517e+01
  2.681275e+00    8.685947e+01
  2.684391e+00    8.677337e+01
  2.687507e+00    8.682990e+01
  2.690623e+00    8.696252e+01
  2.693739e+00    8.689537e+01
  2.696855e+00    8.697559e+01
  2.699971e+00    8.685335e+01
  2.703087e+00    8.676892e+01
  2.706203e+00    8.684563e+01
  2.709318e+00    8.711230e+01
  2.712434e+00    8.709603e+01
  2.715550e+00    8.695948e+01
  2.718666e+00    8.721285e+01
  2.721782e+00    8.717340e+01
  2.724898e+00    8.667651e+01
  2.728014e+00    8.662508e+01
  2.731130e+00    8.681261e+01
  2.734246e+00    8.727589e+01
  2.737362e+00    8.730318e+01
  2.740478e+00    8.715923e+01
  2.743594e+00    8.743584e+01
  2.746710e+00    8.817228e+01
  2.749826e+00    8.925599e+01
  2.752942e+00    9.084926e+01
  2.756058e+00    9.254646e+01
  2.759174e+00    9.398087e+01
  2.762290e+00    9.445309e+01
  2.765406e+00    9.391006e+01
  2.768522e+00    9.262616e+01
  2.771637e+00    9.101831e+01
  2.774753e+00    8.960691e+01
  2.777869e+00    8.861290e+01
  2.780985e+00    8.804272e+01
  2.784101e+00    8.791651e+01
  2.787217e+00    8.771321e+01
  2.790333e+00    8.762222e+01
  2.793449e+00    8.765456e+01
  2.796565e+00    8.771992e+01
  2.799681e+00    8.767864e+01
  2.802797e+00    8.769274e+01
  2.805913e+00    8.775433e+01
  2.809029e+00    8.792432e+01
  2.812145e+00    8.788003e+01
  2.815261e+00    8.769385e+01
  2.818377e+00    8.749267e+01
  2.821493e+00    8.773845e+01
  2.824609e+00    8.783221e+01
  2.827725e+00    8.825420e+01
  2.830841e+00    8.872060e+01
  2.833956e+00    8.949403e+01
  2.837072e+00    9.019512e+01
  2.840188e+00    9.043242e+01
  2.843304e+00    9.028548e+01
  2.846420e+00    8.986818e+01
  2.849536e+00    8.966167e+01
  2.852652e+00    8.954178e+01
  2.855768e+00    8.933025e+01
  2.858884e+00    8.908254e+01
  2.862000e+00    8.876991e+01
  2.865116e+00    8.877048e+01
  2.868232e+00    8.880151e+01
  2.871348e+00    8.893718e+01
  2.874464e+00    8.926545e+01
  2.877580e+00    8.937438e+01
  2.880696e+00    8.949937e+01
  2.883812e+00    8.944597e+01
  2.886928e+00    8.982717e+01
  2.890044e+00    9.025889e+01
  2.893160e+00    9.033066e+01
  2.896275e+00    9.005237e+01
  2.899391e+00    9.004001e+01
  2.902507e+00    9.031958e+01
  2.905623e+00    9.069832e+01
  2.908739e+00    9.067298e+01
  2.911855e+00    9.057864e+01
  2.914971e+00    9.088221e+01
  2.918087e+00    9.116341e+01
  2.921203e+00    9.128873e+01
  2.924319e+00    9.136033e+01
  2.927435e+00    9.163359e+01
  2.930551e+00    9.181483e+01
  2.933667e+00    9.210596e+01
  2.936783e+00    9.199416e+01
  2.939899e+00    9.198798e+01
  2.943015e+00    9.177608e+01
  2.946131e+00    9.171627e+01
  2.949247e+00    9.209596e+01
  2.952363e+00    9.238465e+01
  2.955479e+00    9.242627e+01
  2.958594e+00    9.255742e+01
  2.961710e+00    9.273177e+01
  2.964826e+00    9.286509e+01
  2.967942e+00    9.286169e+01
  2.971058e+00    9.303427e+01
  2.974174e+00    9.335549e+01
  2.977290e+00    9.360764e+01
  2.980406e+00    9.393049e+01
  2.983522e+00    9.407471e+01
  2.986638e+00    9.438499e+01
  2.989754e+00    9.469011e+01
  2.992870e+00    9.503123e+01
  2.995986e+00    9.502148e+01
  2.999102e+00    9.523373e+01
  3.002218e+00    9.542541e+01
  3.005334e+00    9.562366e+01
  3.008450e+00    9.562673e+01
  3.011566e+00    9.598972e+01
  3.014682e+00    9.628802e+01
  3.017798e+00    9.653216e+01
  3.020913e+00    9.668156e+01
  3.024029e+00    9.681503e+01
  3.027145e+00    9.700208e+01
  3.030261e+00    9.736637e+01
  3.033377e+00    9.775476e+01
  3.036493e+00    9.821775e+01
  3.039609e+00    9.887064e+01
  3.042725e+00    9.992872e+01
  3.045841e+00    1.012580e+02
  3.048957e+00    1.028343e+02
  3.052073e+00    1.046385e+02
  3.055189e+00    1.062322e+02
  3.058305e+00    1.070151e+02
  3.061421e+00    1.070232e+02
  3.064537e+00    1.064202e+02
  3.067653e+00    1.054835e+02
  3.070769e+00    1.046942e+02
  3.073885e+00    1.044692e+02
  3.077001e+00    1.044727e+02
  3.080117e+00    1.046127e+02
  3.083232e+00    1.052035e+02
  3.086348e+00    1.058663e+02
  3.089464e+00    1.063220e+02
  3.092580e+00    1.072505e+02
  3.095696e+00    1.081396e+02
  3.098812e+00    1.089664e+02
  3.101928e+00    1.098461e+02
  3.105044e+00    1.112314e+02
  3.108160e+00    1.124770e+02
  3.111276e+00    1.138502e+02
  3.114392e+00    1.152814e+02
  3.117508e+00    1.167078e+02
  3.120624e+00    1.183972e+02
  3.123740e+00    1.201370e+02
  3.126856e+00    1.219893e+02
  3.129972e+00    1.242038e+02
  3.133088e+00    1.265067e+02
  3.136204e+00    1.293071e+02
  3.139320e+00    1.324088e+02
  3.142436e+00    1.360813e+02
  3.145551e+00    1.407150e+02
  3.148667e+00    1.467577e+02
  3.151783e+00    1.549816e+02
  3.154899e+00    1.668064e+02
  3.158015e+00    1.850887e+02
  3.161131e+00    2.146634e+02
  3.164247e+00    2.678186e+02
  3.167363e+00    3.700372e+02
  3.170479e+00    5.764981e+02
  3.173595e+00    9.736334e+02
  3.176711e+00    1.653991e+03
  3.179827e+00    2.602647e+03
  3.182943e+00    3.619516e+03
  3.186059e+00    4.373137e+03
  3.189175e+00    4.578225e+03
  3.192291e+00    4.189042e+03
  3.195407e+00    3.360853e+03
  3.198523e+00    2.373764e+03
  3.201639e+00    1.509686e+03
  3.204755e+00    9.023296e+02
  3.207870e+00    5.465694e+02
  3.210986e+00    3.615634e+02
  3.214102e+00    2.685486e+02
  3.217218e+00    2.205911e+02
  3.220334e+00    1.934176e+02
  3.223450e+00    1.767466e+02
  3.226566e+00    1.654506e+02
  3.229682e+00    1.576720e+02
  3.232798e+00    1.519226e+02
  3.235914e+00    1.476125e+02
  3.239030e+00    1.443062e+02
  3.242146e+00    1.416353e+02
  3.245262e+00    1.398507e+02
  3.248378e+00    1.384078e+02
  3.251494e+00    1.372913e+02
  3.254610e+00    1.366527e+02
  3.257726e+00    1.365815e+02
  3.260842e+00    1.363382e+02
  3.263958e+00    1.357907e+02
  3.267074e+00    1.344860e+02
  3.270189e+00    1.325937e+02
  3.273305e+00    1.304154e+02
  3.276421e+00    1.282046e+02
  3.279537e+00    1.264940e+02
  3.282653e+00    1.253875e+02
  3.285769e+00    1.248199e+02
  3.288885e+00    1.246162e+02
  3.292001e+00    1.252579e+02
  3.295117e+00    1.257722e+02
  3.298233e+00    1.264892e+02
  3.301349e+00    1.272937e+02
  3.304465e+00    1.281276e+02
  3.307581e+00    1.281852e+02
  3.310697e+00    1.276088e+02
  3.313813e+00    1.267980e+02
  3.316929e+00    1.260352e+02
  3.320045e+00    1.254096e+02
  3.323161e+00    1.251494e+02
  3.326277e+00    1.255424e+02
  3.329393e+00    1.261099e+02
  3.332508e+00    1.265276e+02
  3.335624e+00    1.265156e+02
  3.338740e+00    1.263704e+02
  3.341856e+00    1.260989e+02
  3.344972e+00    1.262793e+02
  3.348088e+00    1.264815e+02
  3.351204e+00    1.269178e+02
  3.354320e+00    1.273575e+02
  3.357436e+00    1.280083e+02
  3.360552e+00    1.290138e+02
  3.363668e+00    1.299853e+02
  3.366784e+00    1.312430e+02
  3.369900e+00    1.327136e+02
  3.373016e+00    1.342286e+02
  3.376132e+00    1.355382e+02
  3.379248e+00    1.365701e+02
  3.382364e+00    1.375420e+02
  3.385480e+00    1.384761e+02
  3.388596e+00    1.392849e+02
  3.391712e+00    1.402391e+02
  3.394827e+00    1.415146e+02
  3.397943e+00    1.432642e+02
  3.401059e+00    1.450492e+02
  3.404175e+00    1.470106e+02
  3.407291e+00    1.492447e+02
  3.410407e+00    1.516570e+02
  3.413523e+00    1.544889e+02
  3.416639e+00    1.573918e+02
  3.419755e+00    1.603589e+02
  3.422871e+00    1.636322e+02
  3.425987e+00    1.670759e+02
  3.429103e+00    1.708225e+02
  3.432219e+00    1.750614e+02
  3.435335e+00    1.805206e+02
  3.438451e+00    1.870955e+02
  3.441567e+00    1.958280e+02
  3.444683e+00    2.076098e+02
  3.447799e+00    2.249149e+02
  3.450915e+00    2.517876e+02
  3.454031e+00    3.005329e+02
  3.457146e+00    3.944510e+02
  3.460262e+00    5.900397e+02
  3.463378e+00    9.929370e+02
  3.466494e+00    1.751677e+03
  3.469610e+00    2.963109e+03
  3.472726e+00    4.504670e+03
  3.475842e+00    6.020019e+03
  3.478958e+00    6.903462e+03
  3.482074e+00    6.745459e+03
  3.485190e+00    5.582729e+03
  3.488306e+00    3.966340e+03
  3.491422e+00    2.516161e+03
  3.494538e+00    1.466737e+03
  3.497654e+00    8.536967e+02
  3.500770e+00    5.349398e+02
  3.503886e+00    3.819681e+02
  3.507002e+00    3.055001e+02
  3.510118e+00    2.659154e+02
  3.513234e+00    2.428236e+02
  3.516350e+00    2.289160e+02
  3.519465e+00    2.201688e+02
  3.522581e+00    2.148669e+02
  3.525697e+00    2.114667e+02
  3.528813e+00    2.099329e+02
  3.531929e+00    2.096637e+02
  3.535045e+00    2.108041e+02
  3.538161e+00    2.130563e+02
  3.541277e+00    2.158136e+02
  3.544393e+00    2.188649e+02
  3.547509e+00    2.216544e+02
  3.550625e+00    2.245739e+02
  3.553741e+00    2.281682e+02
  3.556857e+00    2.323560e+02
  3.559973e+00    2.366440e+02
  3.563089e+00    2.415702e+02
  3.566205e+00    2.479982e+02
  3.569321e+00    2.556548e+02
  3.572437e+00    2.640674e+02
  3.575553e+00    2.743217e+02
  3.578669e+00    2.862207e+02
  3.581784e+00    2.995633e+02
  3.584900e+00    3.158125e+02
  3.588016e+00    3.370244e+02
  3.591132e+00    3.649413e+02
  3.594248e+00    4.018997e+02
  3.597364e+00    4.509280e+02
  3.600480e+00    5.195767e+02
  3.603596e+00    6.244249e+02
  3.606712e+00    8.070653e+02
  3.609828e+00    1.152175e+03
  3.612944e+00    1.840203e+03
  3.616060e+00    3.179222e+03
  3.619176e+00    5.557061e+03
  3.622292e+00    9.069446e+03
  3.625408e+00    1.318810e+04
  3.628524e+00    1.671492e+04
  3.631640e+00    1.847320e+04
  3.634756e+00    1.795902e+04
  3.637872e+00    1.546604e+04
  3.640988e+00    1.185571e+04
  3.644103e+00    8.115114e+03
  3.647219e+00    5.011869e+03
  3.650335e+00    2.903611e+03
  3.653451e+00    1.676932e+03
  3.656567e+00    1.042415e+03
  3.659683e+00    7.170515e+02
  3.662799e+00    5.465011e+02
  3.665915e+00    4.475102e+02
  3.669031e+00    3.859658e+02
  3.672147e+00    3.442959e+02
  3.675263e+00    3.143949e+02
  3.678379e+00    2.912643e+02
  3.681495e+00    2.730461e+02
  3.684611e+00    2.583176e+02
  3.687727e+00    2.460693e+02
  3.690843e+00    2.350722e+02
  3.693959e+00    2.255405e+02
  3.697075e+00    2.168495e+02
  3.700191e+00    2.089030e+02
  3.703307e+00    2.014664e+02
  3.706422e+00    1.947439e+02
  3.709538e+00    1.886315e+02
  3.712654e+00    1.828032e+02
  3.715770e+00    1.770355e+02
  3.718886e+00    1.720894e+02
  3.722002e+00    1.676331e+02
  3.725118e+00    1.637109e+02
  3.728234e+00    1.597185e+02
  3.731350e+00    1.560762e+02
  3.734466e+00    1.527758e+02
  3.737582e+00    1.500726e+02
  3.740698e+00    1.472991e+02
  3.743814e+00    1.447664e+02
  3.746930e+00    1.424541e+02
  3.750046e+00    1.403067e+02
  3.753162e+00    1.386904e+02
  3.756278e+00    1.369244e+02
  3.759394e+00    1.353587e+02
  3.762510e+00    1.338375e+02
  3.765626e+00    1.325651e+02
  3.768741e+00    1.316201e+02
  3.771857e+00    1.307169e+02
  3.774973e+00    1.299854e+02
  3.778089e+00    1.293929e+02
  3.781205e+00    1.289644e+02
  3.784321e+00    1.279473e+02
  3.787437e+00    1.273034e+02
  3.790553e+00    1.270296e+02
  3.793669e+00    1.268811e+02
  3.796785e+00    1.264542e+02
  3.799901e+00    1.261439e+02
  3.803017e+00    1.259166e+02
  3.806133e+00    1.257609e+02
  3.809249e+00    1.259205e+02
  3.812365e+00    1.265663e+02
  3.815481e+00    1.271309e+02
  3.818597e+00    1.274632e+02
  3.821713e+00    1.281035e+02
  3.824829e+00    1.289401e+02
  3.827945e+00    1.295607e+02
  3.831060e+00    1.298130e+02
  3.834176e+00    1.295624e+02
  3.837292e+00    1.291084e+02
  3.840408e+00    1.284147e+02
  3.843524e+00    1.271574e+02
  3.846640e+00    1.259828e+02
  3.849756e+00    1.243421e+02
  3.852872e+00    1.227309e+02
  3.855988e+00    1.209744e+02
  3.859104e+00    1.192102e+02
  3.862220e+00    1.175047e+02
  3.865336e+00    1.162255e+02
  3.868452e+00    1.152282e+02
  3.871568e+00    1.143162e+02
  3.874684e+00    1.135138e+02
  3.877800e+00    1.130124e+02
  3.880916e+00    1.128290e+02
  3.884032e+00    1.126531e+02
  3.887148e+00    1.126256e+02
  3.890264e+00    1.129038e+02
  3.893379e+00    1.132684e+02
  3.896495e+00    1.136257e+02
  3.899611e+00    1.140752e+02
  3.902727e+00    1.141438e+02
  3.905843e+00    1.138367e+02
  3.908959e+00    1.130522e+02
  3.912075e+00    1.123165e+02
  3.915191e+00    1.117206e+02
  3.918307e+00    1.112475e+02
  3.921423e+00    1.108758e+02
  3.924539e+00    1.102763e+02
  3.927655e+00    1.098591e+02
  3.930771e+00    1.096531e+02
  3.933887e+00    1.093736e+02
  3.937003e+00    1.091598e+02
  3.940119e+00    1.091303e+02
  3.943235e+00    1.094217e+02
  3.946351e+00    1.096983e+02
  3.949467e+00    1.099904e+02
  3.952583e+00    1.103836e+02
  3.955698e+00    1.110631e+02
  3.958814e+00    1.118735e+02
  3.961930e+00    1.132503e+02
  3.965046e+00    1.147826e+02
  3.968162e+00    1.170220e+02
  3.971278e+00    1.198382e+02
  3.974394e+00    1.242597e+02
  3.977510e+00    1.315295e+02
  3.980626e+00    1.441656e+02
  3.983742e+00    1.679440e+02
  3.986858e+00    2.134852e+02
  3.989974e+00    2.965463e+02
  3.993090e+00    4.285268e+02
  3.996206e+00    6.029580e+02
  3.999322e+00    7.815629e+02
  4.002438e+00    9.208536e+02
  4.005554e+00    1.024089e+03
  4.008670e+00    1.150330e+03
  4.011786e+00    1.357757e+03
  4.014902e+00    1.600513e+03
  4.018017e+00    1.746348e+03
  4.021133e+00    1.644195e+03
  4.024249e+00    1.331250e+03
  4.027365e+00    9.230014e+02
  4.030481e+00    5.715095e+02
  4.033597e+00    3.429414e+02
  4.036713e+00    2.259726e+02
  4.039829e+00    1.695467e+02
  4.042945e+00    1.445166e+02
  4.046061e+00    1.314747e+02
  4.049177e+00    1.240929e+02
  4.052293e+00    1.192425e+02
  4.055409e+00    1.156630e+02
  4.058525e+00    1.124322e+02
  4.061641e+00    1.096770e+02
  4.064757e+00    1.074558e+02
  4.067873e+00    1.057907e+02
  4.070989e+00    1.043234e+02
  4.074105e+00    1.030479e+02
  4.077221e+00    1.019556e+02
  4.080336e+00    1.009235e+02
  4.083452e+00    9.998782e+01
  4.086568e+00    9.911119e+01
  4.089684e+00    9.790550e+01
  4.092800e+00    9.710107e+01
  4.095916e+00    9.655465e+01
  4.099032e+00    9.594105e+01
  4.102148e+00    9.526258e+01
  4.105264e+00    9.484193e+01
  4.108380e+00    9.458830e+01
  4.111496e+00    9.448193e+01
  4.114612e+00    9.444865e+01
  4.117728e+00    9.437012e+01
  4.120844e+00    9.414328e+01
  4.123960e+00    9.373433e+01
  4.127076e+00    9.327872e+01
  4.130192e+00    9.281263e+01
  4.133308e+00    9.206117e+01
  4.136424e+00    9.170176e+01
  4.139540e+00    9.110672e+01
  4.142655e+00    9.045954e+01
  4.145771e+00    9.005110e+01
  4.148887e+00    8.962266e+01
  4.152003e+00    8.912136e+01
  4.155119e+00    8.876803e+01
  4.158235e+00    8.874228e+01
  4.161351e+00    8.869902e+01
  4.164467e+00    8.840316e+01
  4.167583e+00    8.809464e+01
  4.170699e+00    8.813419e+01
  4.173815e+00    8.781340e+01
  4.176931e+00    8.723089e+01
  4.180047e+00    8.679358e+01
  4.183163e+00    8.703718e+01
  4.186279e+00    8.708067e+01
  4.189395e+00    8.678657e+01
  4.192511e+00    8.640882e+01
  4.195627e+00    8.630506e+01
  4.198743e+00    8.647953e+01
  4.201858e+00    8.625651e+01
  4.204974e+00    8.611567e+01
  4.208090e+00    8.602946e+01
  4.211206e+00    8.591678e+01
  4.214322e+00    8.605165e+01
  4.217438e+00    8.606470e+01
  4.220554e+00    8.605713e+01
  4.223670e+00    8.584348e+01
  4.226786e+00    8.554554e+01
  4.229902e+00    8.542962e+01
  4.233018e+00    8.547214e+01
  4.236134e+00    8.530038e+01
  4.239250e+00    8.492229e+01
  4.242366e+00    8.468549e+01
  4.245482e+00    8.473474e+01
  4.248598e+00    8.470139e+01
  4.251714e+00    8.444682e+01
  4.254830e+00    8.431180e+01
  4.257946e+00    8.435963e+01
  4.261062e+00    8.411772e+01
  4.264177e+00    8.387326e+01
  4.267293e+00    8.387064e+01
  4.270409e+00    8.379847e+01
  4.273525e+00    8.349483e+01
  4.276641e+00    8.285523e+01
  4.279757e+00    8.270380e+01
  4.282873e+00    8.299017e+01
  4.285989e+00    8.307507e+01
  4.289105e+00    8.337328e+01
  4.292221e+00    8.386526e+01
  4.295337e+00    8.441169e+01
  4.298453e+00    8.490000e+01
  4.301569e+00    8.536803e+01
  4.304685e+00    8.563250e+01
  4.307801e+00    8.553173e+01
  4.310917e+00    8.528975e+01
  4.314033e+00    8.501906e+01
  4.317149e+00    8.441771e+01
  4.320265e+00    8.373163e+01
  4.323381e+00    8.321003e+01
  4.326496e+00    8.287371e+01
  4.329612e+00    8.257530e+01
  4.332728e+00    8.227639e+01
  4.335844e+00    8.214202e+01
  4.338960e+00    8.198778e+01
  4.342076e+00    8.198753e+01
  4.345192e+00    8.207606e+01
  4.348308e+00    8.195886e+01
  4.351424e+00    8.161499e+01
  4.354540e+00    8.164677e+01
  4.357656e+00    8.192221e+01
  4.360772e+00    8.200788e+01
  4.363888e+00    8.192912e+01
  4.367004e+00    8.170573e+01
  4.370120e+00    8.182725e+01
  4.373236e+00    8.207850e+01
  4.376352e+00    8.232054e+01
  4.379468e+00    8.228040e+01
  4.382584e+00    8.232129e+01
  4.385700e+00    8.239771e+01
  4.388815e+00    8.256970e+01
  4.391931e+00    8.241988e+01
  4.395047e+00    8.246638e+01
  4.398163e+00    8.257800e+01
  4.401279e+00    8.272005e+01
  4.404395e+00    8.289085e+01
  4.407511e+00    8.299988e+01
  4.410627e+00    8.338037e+01
  4.413743e+00    8.354772e+01
  4.416859e+00    8.376334e+01
  4.419975e+00    8.386708e+01
  4.423091e+00    8.404645e+01
  4.426207e+00    8.411443e+01
  4.429323e+00    8.437715e+01
  4.432439e+00    8.470300e+01
  4.435555e+00    8.511922e+01
  4.438671e+00    8.527821e+01
  4.441787e+00    8.511280e+01
  4.444903e+00    8.479287e+01
  4.448019e+00    8.445513e+01
  4.451134e+00    8.398129e+01
  4.454250e+00    8.347424e+01
  4.457366e+00    8.313900e+01
  4.460482e+00    8.266459e+01
  4.463598e+00    8.228713e+01
  4.466714e+00    8.208902e+01
  4.469830e+00    8.206238e+01
  4.472946e+00    8.186716e+01
  4.476062e+00    8.153948e+01
  4.479178e+00    8.154235e+01
  4.482294e+00    8.175714e+01
  4.485410e+00    8.164410e+01
  4.488526e+00    8.160796e+01
  4.491642e+00    8.181030e+01
  4.494758e+00    8.198405e+01
  4.497874e+00    8.189243e+01
  4.500990e+00    8.167930e+01
  4.504106e+00    8.150181e+01
  4.507222e+00    8.145194e+01
  4.510338e+00    8.154510e+01
  4.513453e+00    8.165278e+01
  4.516569e+00    8.198191e+01
  4.519685e+00    8.208348e+01
  4.522801e+00    8.212907e+01
  4.525917e+00    8.210699e+01
  4.529033e+00    8.223617e+01
  4.532149e+00    8.230946e+01
  4.535265e+00    8.237894e+01
  4.538381e+00    8.259865e+01
  4.541497e+00    8.296462e+01
  4.544613e+00    8.323407e+01
  4.547729e+00    8.360064e+01
  4.550845e+00    8.392712e+01
  4.553961e+00    8.412582e+01
  4.557077e+00    8.431567e+01
  4.560193e+00    8.444781e+01
  4.563309e+00    8.487854e+01
  4.566425e+00    8.527418e+01
  4.569541e+00    8.563482e+01
  4.572657e+00    8.608427e+01
  4.575772e+00    8.660164e+01
  4.578888e+00    8.715103e+01
  4.582004e+00    8.780163e+01
  4.585120e+00    8.885802e+01
  4.588236e+00    9.013480e+01
  4.591352e+00    9.194572e+01
  4.594468e+00    9.495608e+01
  4.597584e+00    9.983271e+01
  4.600700e+00    1.075695e+02
  4.603816e+00    1.211852e+02
  4.606932e+00    1.442443e+02
  4.610048e+00    1.816281e+02
  4.613164e+00    2.321867e+02
  4.616280e+00    2.918217e+02
  4.619396e+00    3.415736e+02
  4.622512e+00    3.653457e+02
  4.625628e+00    3.517118e+02
  4.628744e+00    3.062151e+02
  4.631860e+00    2.472989e+02
  4.634976e+00    1.917846e+02
  4.638091e+00    1.517669e+02
  4.641207e+00    1.280458e+02
  4.644323e+00    1.153300e+02
  4.647439e+00    1.087519e+02
  4.650555e+00    1.054765e+02
  4.653671e+00    1.041707e+02
  4.656787e+00    1.035150e+02
  4.659903e+00    1.036958e+02
  4.663019e+00    1.044367e+02
  4.666135e+00    1.056114e+02
  4.669251e+00    1.071967e+02
  4.672367e+00    1.091786e+02
  4.675483e+00    1.118768e+02
  4.678599e+00    1.153967e+02
  4.681715e+00    1.200806e+02
  4.684831e+00    1.268594e+02
  4.687947e+00    1.373266e+02
  4.691063e+00    1.539002e+02
  4.694179e+00    1.831538e+02
  4.697295e+00    2.366455e+02
  4.700410e+00    3.399007e+02
  4.703526e+00    5.251184e+02
  4.706642e+00    8.282261e+02
  4.709758e+00    1.234446e+03
  4.712874e+00    1.685969e+03
  4.715990e+00    2.050495e+03
  4.719106e+00    2.251389e+03
  4.722222e+00    2.240208e+03
  4.725338e+00    2.044272e+03
  4.728454e+00    1.727965e+03
  4.731570e+00    1.342550e+03
  4.734686e+00    9.751117e+02
  4.737802e+00    6.590980e+02
  4.740918e+00    4.353120e+02
  4.744034e+00    2.922217e+02
  4.747150e+00    2.135954e+02
  4.750266e+00    1.697992e+02
  4.753382e+00    1.457282e+02
  4.756498e+00    1.312054e+02
  4.759614e+00    1.222183e+02
  4.762729e+00    1.158529e+02
  4.765845e+00    1.112155e+02
  4.768961e+00    1.077768e+02
  4.772077e+00    1.050829e+02
  4.775193e+00    1.027593e+02
  4.778309e+00    1.008973e+02
  4.781425e+00    9.913892e+01
  4.784541e+00    9.783697e+01
  4.787657e+00    9.648170e+01
  4.790773e+00    9.508720e+01
  4.793889e+00    9.363138e+01
  4.797005e+00    9.272417e+01
  4.800121e+00    9.197076e+01
  4.803237e+00    9.123534e+01
  4.806353e+00    9.046782e+01
  4.809469e+00    8.984259e+01
  4.812585e+00    8.908280e+01
  4.815701e+00    8.817122e+01
  4.818817e+00    8.737342e+01
  4.821933e+00    8.663322e+01
  4.825048e+00    8.626989e+01
  4.828164e+00    8.579861e+01
  4.831280e+00    8.548370e+01
  4.834396e+00    8.520752e+01
  4.837512e+00    8.511173e+01
  4.840628e+00    8.479375e+01
  4.843744e+00    8.448235e+01
  4.846860e+00    8.403223e+01
  4.849976e+00    8.373712e+01
  4.853092e+00    8.346807e+01
  4.856208e+00    8.326987e+01
  4.859324e+00    8.303357e+01
  4.862440e+00    8.304140e+01
  4.865556e+00    8.310353e+01
  4.868672e+00    8.285959e+01
  4.871788e+00    8.247632e+01
  4.874904e+00    8.230109e+01
  4.878020e+00    8.200576e+01
  4.881136e+00    8.163889e+01
  4.884252e+00    8.160890e+01
  4.887367e+00    8.158678e+01
  4.890483e+00    8.137510e+01
  4.893599e+00    8.129961e+01
  4.896715e+00    8.135078e+01
  4.899831e+00    8.124604e+01
  4.902947e+00    8.092746e+01
  4.906063e+00    8.065101e+01
  4.909179e+00    8.057044e+01
  4.912295e+00    8.087539e+01
  4.915411e+00    8.095010e+01
  4.918527e+00    8.091428e+01
  4.921643e+00    8.090452e+01
  4.924759e+00    8.096955e+01
  4.927875e+00    8.095581e+01
  4.930991e+00    8.078354e+01
  4.934107e+00    8.067032e+01
  4.937223e+00    8.058876e+01
  4.940339e+00    8.071835e+01
  4.943455e+00    8.098631e+01
  4.946571e+00    8.127757e+01
  4.949686e+00    8.143365e+01
  4.952802e+00    8.168330e+01
  4.955918e+00    8.194447e+01
  4.959034e+00    8.208324e+01
  4.962150e+00    8.212458e+01
  4.965266e+00    8.189309e+01
  4.968382e+00    8.170779e+01
  4.971498e+00    8.142554e+01
  4.974614e+00    8.110928e+01
  4.977730e+00    8.079051e+01
  4.980846e+00    8.046866e+01
  4.983962e+00    8.037326e+01
  4.987078e+00    8.038173e+01
  4.990194e+00    8.050287e+01
  4.993310e+00    8.057970e+01
  4.996426e+00    8.073849e+01
  4.999542e+00    8.082413e+01
  5.002658e+00    8.075680e+01
  5.005774e+00    8.088749e+01
  5.008890e+00    8.101227e+01
  5.012005e+00    8.114941e+01
  5.015121e+00    8.120554e+01
  5.018237e+00    8.116511e+01
  5.021353e+00    8.123798e+01
  5.024469e+00    8.135175e+01
  5.027585e+00    8.142909e+01
  5.030701e+00    8.146074e+01
  5.033817e+00    8.137979e+01
  5.036933e+00    8.124178e+01
  5.040049e+00    8.115721e+01
  5.043165e+00    8.122020e+01
  5.046281e+00    8.140271e+01
  5.049397e+00    8.128812e+01
  5.052513e+00    8.134205e+01
  5.055629e+00    8.159830e+01
  5.058745e+00    8.180914e+01
  5.061861e+00    8.195747e+01
  5.064977e+00    8.211319e+01
  5.068093e+00    8.206118e+01
  5.071209e+00    8.220591e+01
  5.074324e+00    8.246919e+01
  5.077440e+00    8.281968e+01
  5.080556e+00    8.324659e+01
  5.083672e+00    8.363438e+01
  5.086788e+00    8.411769e+01
  5.089904e+00    8.418253e+01
  5.093020e+00    8.389999e+01
  5.096136e+00    8.349949e+01
  5.099252e+00    8.281353e+01
  5.102368e+00    8.224648e+01
  5.105484e+00    8.188342e+01
  5.108600e+00    8.165907e+01
  5.111716e+00    8.126337e+01
  5.114832e+00    8.108378e+01
  5.117948e+00    8.101379e+01
  5.121064e+00    8.093223e+01
  5.124180e+00    8.089869e+01
  5.127296e+00    8.095211e+01
  5.130412e+00    8.103511e+01
  5.133528e+00    8.111534e+01
  5.136643e+00    8.117036e+01
  5.139759e+00    8.108443e+01
  5.142875e+00    8.106360e+01
  5.145991e+00    8.109866e+01
  5.149107e+00    8.128593e+01
  5.152223e+00    8.136165e+01
  5.155339e+00    8.137654e+01
  5.158455e+00    8.124847e+01
  5.161571e+00    8.112377e+01
  5.164687e+00    8.107209e+01
  5.167803e+00    8.124678e+01
  5.170919e+00    8.149862e+01
  5.174035e+00    8.161145e+01
  5.177151e+00    8.147900e+01
  5.180267e+00    8.126574e+01
  5.183383e+00    8.125361e+01
  5.186499e+00    8.158899e+01
  5.189615e+00    8.186962e+01
  5.192731e+00    8.204366e+01
  5.195847e+00    8.207417e+01
  5.198962e+00    8.190025e+01
  5.202078e+00    8.201672e+01
  5.205194e+00    8.217432e+01
  5.208310e+00    8.228734e+01
  5.211426e+00    8.242633e+01
  5.214542e+00    8.274770e+01
  5.217658e+00    8.285932e+01
  5.220774e+00    8.282574e+01
  5.223890e+00    8.287421e+01
  5.227006e+00    8.289407e+01
  5.230122e+00    8.298344e+01
  5.233238e+00    8.290057e+01
  5.236354e+00    8.296402e+01
  5.239470e+00    8.307165e+01
  5.242586e+00    8.326157e+01
  5.245702e+00    8.326625e+01
  5.248818e+00    8.332719e+01
  5.251934e+00    8.335477e+01
  5.255050e+00    8.359109e+01
  5.258166e+00    8.363262e+01
  5.261281e+00    8.364441e+01
  5.264397e+00    8.401073e+01
  5.267513e+00    8.422456e+01
  5.270629e+00    8.440668e+01
  5.273745e+00    8.448173e+01
  5.276861e+00    8.428954e+01
  5.279977e+00    8.426253e+01
  5.283093e+00    8.455081e+01
  5.286209e+00    8.481474e+01
  5.289325e+00    8.478360e+01
  5.292441e+00    8.487138e+01
  5.295557e+00    8.480684e+01
  5.298673e+00    8.490771e+01
  5.301789e+00    8.502752e+01
  5.304905e+00    8.528536e+01
  5.308021e+00    8.530780e+01
  5.311137e+00    8.534542e+01
  5.314253e+00    8.550680e+01
  5.317369e+00    8.586301e+01
  5.320485e+00    8.599120e+01
  5.323600e+00    8.626218e+01
  5.326716e+00    8.642297e+01
  5.329832e+00    8.664835e+01
  5.332948e+00    8.663371e+01
  5.336064e+00    8.679374e+01
  5.339180e+00    8.695856e+01
  5.342296e+00    8.717826e+01
  5.345412e+00    8.754400e+01
  5.348528e+00    8.786832e+01
  5.351644e+00    8.806634e+01
  5.354760e+00    8.824878e+01
  5.357876e+00    8.831413e+01
  5.360992e+00    8.851827e+01
  5.364108e+00    8.870609e+01
  5.367224e+00    8.893282e+01
  5.370340e+00    8.930125e+01
  5.373456e+00    8.978459e+01
  5.376572e+00    9.032830e+01
  5.379688e+00    9.064538e+01
  5.382804e+00    9.108904e+01
  5.385919e+00    9.155189e+01
  5.389035e+00    9.205873e+01
  5.392151e+00    9.249525e+01
  5.395267e+00    9.279179e+01
  5.398383e+00    9.325404e+01
  5.401499e+00    9.372301e+01
  5.404615e+00    9.427866e+01
  5.407731e+00    9.464281e+01
  5.410847e+00    9.516599e+01
  5.413963e+00    9.588464e+01
  5.417079e+00    9.675549e+01
  5.420195e+00    9.715464e+01
  5.423311e+00    9.775070e+01
  5.426427e+00    9.859682e+01
  5.429543e+00    9.949166e+01
  5.432659e+00    1.002759e+02
  5.435775e+00    1.011603e+02
  5.438891e+00    1.020983e+02
  5.442007e+00    1.031858e+02
  5.445123e+00    1.043975e+02
  5.448238e+00    1.057604e+02
  5.451354e+00    1.073164e+02
  5.454470e+00    1.087518e+02
  5.457586e+00    1.105204e+02
  5.460702e+00    1.123426e+02
  5.463818e+00    1.144470e+02
  5.466934e+00    1.167554e+02
  5.470050e+00    1.195623e+02
  5.473166e+00    1.230590e+02
  5.476282e+00    1.271813e+02
  5.479398e+00    1.326787e+02
  5.482514e+00    1.396167e+02
  5.485630e+00    1.487074e+02
  5.488746e+00    1.609971e+02
  5.491862e+00    1.798201e+02
  5.494978e+00    2.085857e+02
  5.498094e+00    2.573057e+02
  5.501210e+00    3.392516e+02
  5.504326e+00    4.826815e+02
  5.507442e+00    7.091064e+02
  5.510557e+00    1.051722e+03
  5.513673e+00    1.470014e+03
  5.516789e+00    1.909696e+03
  5.519905e+00    2.244420e+03
  5.523021e+00    2.417996e+03
  5.526137e+00    2.413529e+03
  5.529253e+00    2.271313e+03
  5.532369e+00    2.036354e+03
  5.535485e+00    1.717704e+03
  5.538601e+00    1.356559e+03
  5.541717e+00    9.804284e+02
  5.544833e+00    6.761028e+02
  5.547949e+00    4.560956e+02
  5.551065e+00    3.231151e+02
  5.554181e+00    2.452281e+02
  5.557297e+00    2.018218e+02
  5.560413e+00    1.753522e+02
  5.563529e+00    1.587470e+02
  5.566645e+00    1.476910e+02
  5.569761e+00    1.399944e+02
  5.572876e+00    1.341100e+02
  5.575992e+00    1.295448e+02
  5.579108e+00    1.258577e+02
  5.582224e+00    1.228826e+02
  5.585340e+00    1.206060e+02
  5.588456e+00    1.187268e+02
  5.591572e+00    1.170918e+02
  5.594688e+00    1.155799e+02
  5.597804e+00    1.142266e+02
  5.600920e+00    1.131029e+02
  5.604036e+00    1.121209e+02
  5.607152e+00    1.113160e+02
  5.610268e+00    1.106400e+02
  5.613384e+00    1.100115e+02
  5.616500e+00    1.095494e+02
  5.619616e+00    1.091417e+02
  5.622732e+00    1.087901e+02
  5.625848e+00    1.084631e+02
  5.628964e+00    1.084158e+02
  5.632080e+00    1.083671e+02
  5.635195e+00    1.082509e+02
  5.638311e+00    1.082793e+02
  5.641427e+00    1.088295e+02
  5.644543e+00    1.095442e+02
  5.647659e+00    1.104341e+02
  5.650775e+00    1.117640e+02
  5.653891e+00    1.138443e+02
  5.657007e+00    1.179123e+02
  5.660123e+00    1.260398e+02
  5.663239e+00    1.427849e+02
  5.666355e+00    1.799216e+02
  5.669471e+00    2.547569e+02
  5.672587e+00    3.852809e+02
  5.675703e+00    5.739182e+02
  5.678819e+00    7.841228e+02
  5.681935e+00    9.734474e+02
  5.685051e+00    1.058517e+03
  5.688167e+00    1.032046e+03
  5.691283e+00    8.846159e+02
  5.694399e+00    6.608666e+02
  5.697514e+00    4.473040e+02
  5.700630e+00    2.873416e+02
  5.703746e+00    1.950929e+02
  5.706862e+00    1.489935e+02
  5.709978e+00    1.282869e+02
  5.713094e+00    1.180516e+02
  5.716210e+00    1.127956e+02
  5.719326e+00    1.094987e+02
  5.722442e+00    1.073164e+02
  5.725558e+00    1.056684e+02
  5.728674e+00    1.045887e+02
  5.731790e+00    1.037807e+02
  5.734906e+00    1.030651e+02
  5.738022e+00    1.023604e+02
  5.741138e+00    1.020041e+02
  5.744254e+00    1.013758e+02
  5.747370e+00    1.009635e+02
  5.750486e+00    1.005234e+02
  5.753602e+00    1.002590e+02
  5.756718e+00    9.975337e+01
  5.759833e+00    9.910617e+01
  5.762949e+00    9.858472e+01
  5.766065e+00    9.831373e+01
  5.769181e+00    9.820982e+01
  5.772297e+00    9.812964e+01
  5.775413e+00    9.819316e+01
  5.778529e+00    9.799086e+01
  5.781645e+00    9.771866e+01
  5.784761e+00    9.745424e+01
  5.787877e+00    9.761465e+01
  5.790993e+00    9.765444e+01
  5.794109e+00    9.764202e+01
  5.797225e+00    9.736214e+01
  5.800341e+00    9.696682e+01
  5.803457e+00    9.671848e+01
  5.806573e+00    9.658404e+01
  5.809689e+00    9.666977e+01
  5.812805e+00    9.663419e+01
  5.815921e+00    9.659254e+01
  5.819037e+00    9.649307e+01
  5.822152e+00    9.626745e+01
  5.825268e+00    9.596942e+01
  5.828384e+00    9.560321e+01
  5.831500e+00    9.531102e+01
  5.834616e+00    9.520694e+01
  5.837732e+00    9.520066e+01
  5.840848e+00    9.527507e+01
  5.843964e+00    9.537762e+01
  5.847080e+00    9.552042e+01
  5.850196e+00    9.563758e+01
  5.853312e+00    9.551872e+01
  5.856428e+00    9.527294e+01
  5.859544e+00    9.525259e+01
  5.862660e+00    9.534965e+01
  5.865776e+00    9.524969e+01
  5.868892e+00    9.510199e+01
  5.872008e+00    9.516460e+01
  5.875124e+00    9.546187e+01
  5.878240e+00    9.554065e+01
  5.881356e+00    9.555633e+01
  5.884471e+00    9.530678e+01
  5.887587e+00    9.533959e+01
  5.890703e+00    9.548693e+01
  5.893819e+00    9.585143e+01
  5.896935e+00    9.602899e+01
  5.900051e+00    9.615739e+01
  5.903167e+00    9.612476e+01
  5.906283e+00    9.629646e+01
  5.909399e+00    9.651698e+01
  5.912515e+00    9.671017e+01
  5.915631e+00    9.689261e+01
  5.918747e+00    9.701571e+01
  5.921863e+00    9.702378e+01
  5.924979e+00    9.683354e+01
  5.928095e+00    9.670248e+01
  5.931211e+00    9.666589e+01
  5.934327e+00    9.687521e+01
  5.937443e+00    9.702410e+01
  5.940559e+00    9.704843e+01
  5.943675e+00    9.707965e+01
  5.946790e+00    9.728265e+01
  5.949906e+00    9.758643e+01
  5.953022e+00    9.774746e+01
  5.956138e+00    9.805357e+01
  5.959254e+00    9.828397e+01
  5.962370e+00    9.843950e+01
  5.965486e+00    9.866929e+01
  5.968602e+00    9.897981e+01
  5.971718e+00    9.924651e+01
  5.974834e+00    9.965743e+01
  5.977950e+00    1.000186e+02
  5.981066e+00    1.001669e+02
  5.984182e+00    1.002598e+02
  5.987298e+00    1.005705e+02
  5.990414e+00    1.010635e+02
  5.993530e+00    1.013812e+02
  5.996646e+00    1.017539e+02
  5.999762e+00    1.022615e+02
  6.002878e+00    1.028622e+02
  6.005994e+00    1.032876e+02
  6.009109e+00    1.036707e+02
  6.012225e+00    1.040986e+02
  6.015341e+00    1.046471e+02
  6.018457e+00    1.052649e+02
  6.021573e+00    1.059118e+02
  6.024689e+00    1.068684e+02
  6.027805e+00    1.078082e+02
  6.030921e+00    1.086537e+02
  6.034037e+00    1.096546e+02
  6.037153e+00    1.105012e+02
  6.040269e+00    1.113921e+02
  6.043385e+00    1.123134e+02
  6.046501e+00    1.134104e+02
  6.049617e+00    1.147519e+02
  6.052733e+00    1.162242e+02
  6.055849e+00    1.179477e+02
  6.058965e+00    1.198001e+02
  6.062081e+00    1.218927e+02
  6.065197e+00    1.241057e+02
  6.068313e+00    1.267023e+02
  6.071428e+00    1.300727e+02
  6.074544e+00    1.345074e+02
  6.077660e+00    1.405322e+02
  6.080776e+00    1.487417e+02
  6.083892e+00    1.607025e+02
  6.087008e+00    1.794834e+02
  6.090124e+00    2.109108e+02
  6.093240e+00    2.647769e+02
  6.096356e+00    3.602573e+02
  6.099472e+00    5.216498e+02
  6.102588e+00    7.756021e+02
  6.105704e+00    1.120499e+03
  6.108820e+00    1.515840e+03
  6.111936e+00    1.881579e+03
  6.115052e+00    2.129338e+03
  6.118168e+00    2.228115e+03
  6.121284e+00    2.173706e+03
  6.124400e+00    2.007613e+03
  6.127516e+00    1.769788e+03
  6.130632e+00    1.480842e+03
  6.133747e+00    1.176244e+03
  6.136863e+00    8.788118e+02
  6.139979e+00    6.290651e+02
  6.143095e+00    4.405305e+02
  6.146211e+00    3.180357e+02
  6.149327e+00    2.429797e+02
  6.152443e+00    2.005743e+02
  6.155559e+00    1.750326e+02
  6.158675e+00    1.592752e+02
  6.161791e+00    1.485710e+02
  6.164907e+00    1.409386e+02
  6.168023e+00    1.353634e+02
  6.171139e+00    1.311483e+02
  6.174255e+00    1.279307e+02
  6.177371e+00    1.256634e+02
  6.180487e+00    1.236071e+02
  6.183603e+00    1.218841e+02
  6.186719e+00    1.200590e+02
  6.189835e+00    1.185203e+02
  6.192951e+00    1.173410e+02
  6.196066e+00    1.164328e+02
  6.199182e+00    1.157280e+02
  6.202298e+00    1.150090e+02
  6.205414e+00    1.143429e+02
  6.208530e+00    1.137168e+02
  6.211646e+00    1.131092e+02
  6.214762e+00    1.124760e+02
  6.217878e+00    1.117476e+02
  6.220994e+00    1.112703e+02
  6.224110e+00    1.110966e+02
  6.227226e+00    1.113691e+02
  6.230342e+00    1.114301e+02
  6.233458e+00    1.113612e+02
  6.236574e+00    1.112412e+02
  6.239690e+00    1.109879e+02
  6.242806e+00    1.104357e+02
  6.245922e+00    1.098113e+02
  6.249038e+00    1.091599e+02
  6.252154e+00    1.084222e+02
  6.255270e+00    1.079663e+02
  6.258385e+00    1.077190e+02
  6.261501e+00    1.074362e+02
  6.264617e+00    1.072661e+02
  6.267733e+00    1.070552e+02
  6.270849e+00    1.069451e+02
  6.273965e+00    1.067041e+02
  6.277081e+00    1.065524e+02
  6.280197e+00    1.064285e+02
  6.283313e+00    1.064725e+02
  6.286429e+00    1.059858e+02
  6.289545e+00    1.059491e+02
  6.292661e+00    1.062406e+02
  6.295777e+00    1.064229e+02
  6.298893e+00    1.063514e+02
  6.302009e+00    1.062910e+02
  6.305125e+00    1.064142e+02
  6.308241e+00    1.065872e+02
  6.311357e+00    1.068322e+02
  6.314473e+00    1.068488e+02
  6.317589e+00    1.066799e+02
  6.320704e+00    1.067997e+02
  6.323820e+00    1.073126e+02
  6.326936e+00    1.080267e+02
  6.330052e+00    1.087344e+02
  6.333168e+00    1.093541e+02
  6.336284e+00    1.101493e+02
  6.339400e+00    1.113967e+02
  6.342516e+00    1.129696e+02
  6.345632e+00    1.152483e+02
  6.348748e+00    1.185616e+02
  6.351864e+00    1.239024e+02
  6.354980e+00    1.330957e+02
  6.358096e+00    1.481109e+02
  6.361212e+00    1.714854e+02
  6.364328e+00    2.060419e+02
  6.367444e+00    2.515358e+02
  6.370560e+00    3.035664e+02
  6.373676e+00    3.507744e+02
  6.376792e+00    3.832075e+02
  6.379908e+00    3.936210e+02
  6.383023e+00    3.854176e+02
  6.386139e+00    3.654339e+02
  6.389255e+00    3.386240e+02
  6.392371e+00    3.061044e+02
  6.395487e+00    2.674255e+02
  6.398603e+00    2.266448e+02
  6.401719e+00    1.887774e+02
  6.404835e+00    1.600370e+02
  6.407951e+00    1.404846e+02
  6.411067e+00    1.302179e+02
  6.414183e+00    1.243105e+02
  6.417299e+00    1.213273e+02
  6.420415e+00    1.197696e+02
  6.423531e+00    1.190463e+02
  6.426647e+00    1.187585e+02
  6.429763e+00    1.190842e+02
  6.432879e+00    1.195198e+02
  6.435995e+00    1.200554e+02
  6.439111e+00    1.210851e+02
  6.442227e+00    1.222316e+02
  6.445342e+00    1.234281e+02
  6.448458e+00    1.247764e+02
  6.451574e+00    1.263465e+02
  6.454690e+00    1.278454e+02
  6.457806e+00    1.293125e+02
  6.460922e+00    1.309814e+02
  6.464038e+00    1.327518e+02
  6.467154e+00    1.347510e+02
  6.470270e+00    1.370766e+02
  6.473386e+00    1.400157e+02
  6.476502e+00    1.433948e+02
  6.479618e+00    1.472581e+02
  6.482734e+00    1.514184e+02
  6.485850e+00    1.568653e+02
  6.488966e+00    1.639624e+02
  6.492082e+00    1.738004e+02
  6.495198e+00    1.878315e+02
  6.498314e+00    2.087774e+02
  6.501430e+00    2.422648e+02
  6.504546e+00    2.976793e+02
  6.507661e+00    3.912878e+02
  6.510777e+00    5.445347e+02
  6.513893e+00    7.806288e+02
  6.517009e+00    1.104370e+03
  6.520125e+00    1.488944e+03
  6.523241e+00    1.864706e+03
  6.526357e+00    2.154595e+03
  6.529473e+00    2.310992e+03
  6.532589e+00    2.334309e+03
  6.535705e+00    2.256761e+03
  6.538821e+00    2.106129e+03
  6.541937e+00    1.888510e+03
  6.545053e+00    1.603008e+03
  6.548169e+00    1.276757e+03
  6.551285e+00    9.539930e+02
  6.554401e+00    6.834049e+02
  6.557517e+00    4.899529e+02
  6.560633e+00    3.647164e+02
  6.563749e+00    2.922918e+02
  6.566865e+00    2.507517e+02
  6.569980e+00    2.283750e+02
  6.573096e+00    2.170716e+02
  6.576212e+00    2.137591e+02
  6.579328e+00    2.170309e+02
  6.582444e+00    2.287280e+02
  6.585560e+00    2.523317e+02
  6.588676e+00    2.950478e+02
  6.591792e+00    3.682294e+02
  6.594908e+00    4.871897e+02
  6.598024e+00    6.663021e+02
  6.601140e+00    9.041649e+02
  6.604256e+00    1.171187e+03
  6.607372e+00    1.404565e+03
  6.610488e+00    1.564156e+03
  6.613604e+00    1.614825e+03
  6.616720e+00    1.574434e+03
  6.619836e+00    1.482623e+03
  6.622952e+00    1.362993e+03
  6.626068e+00    1.214003e+03
  6.629184e+00    1.026813e+03
  6.632299e+00    8.150836e+02
  6.635415e+00    6.097302e+02
  6.638531e+00    4.471242e+02
  6.641647e+00    3.393501e+02
  6.644763e+00    2.811913e+02
  6.647879e+00    2.648075e+02
  6.650995e+00    2.899513e+02
  6.654111e+00    3.625864e+02
  6.657227e+00    4.872264e+02
  6.660343e+00    6.583247e+02
  6.663459e+00    8.418559e+02
  6.666575e+00    9.885328e+02
  6.669691e+00    1.025493e+03
  6.672807e+00    9.429861e+02
  6.675923e+00    7.758776e+02
  6.679039e+00    5.824274e+02
  6.682155e+00    4.088725e+02
  6.685271e+00    2.827543e+02
  6.688387e+00    2.070674e+02
  6.691503e+00    1.668438e+02
  6.694618e+00    1.468903e+02
  6.697734e+00    1.365312e+02
  6.700850e+00    1.306131e+02
  6.703966e+00    1.266209e+02
  6.707082e+00    1.236347e+02
  6.710198e+00    1.213548e+02
  6.713314e+00    1.194925e+02
  6.716430e+00    1.182223e+02
  6.719546e+00    1.168966e+02
  6.722662e+00    1.156773e+02
  6.725778e+00    1.144569e+02
  6.728894e+00    1.134568e+02
  6.732010e+00    1.123448e+02
  6.735126e+00    1.112115e+02
  6.738242e+00    1.102083e+02
  6.741358e+00    1.092397e+02
  6.744474e+00    1.084076e+02
  6.747590e+00    1.076054e+02
  6.750706e+00    1.071422e+02
  6.753822e+00    1.066939e+02
  6.756937e+00    1.062242e+02
  6.760053e+00    1.055863e+02
  6.763169e+00    1.050842e+02
  6.766285e+00    1.045647e+02
  6.769401e+00    1.039971e+02
  6.772517e+00    1.035994e+02
  6.775633e+00    1.033446e+02
  6.778749e+00    1.029292e+02
  6.781865e+00    1.021685e+02
  6.784981e+00    1.013918e+02
  6.788097e+00    1.009080e+02
  6.791213e+00    1.008909e+02
  6.794329e+00    1.007632e+02
  6.797445e+00    1.004652e+02
  6.800561e+00    1.001288e+02
  6.803677e+00    9.983491e+01
  6.806793e+00    9.949432e+01
  6.809909e+00    9.922034e+01
  6.813025e+00    9.908184e+01
  6.816141e+00    9.884853e+01
  6.819256e+00    9.850652e+01
  6.822372e+00    9.819482e+01
  6.825488e+00    9.803513e+01
  6.828604e+00    9.798215e+01
  6.831720e+00    9.775346e+01
  6.834836e+00    9.756419e+01
  6.837952e+00    9.734123e+01
  6.841068e+00    9.721880e+01
  6.844184e+00    9.717608e+01
  6.847300e+00    9.728642e+01
  6.850416e+00    9.725933e+01
  6.853532e+00    9.702496e+01
  6.856648e+00    9.657390e+01
  6.859764e+00    9.641673e+01
  6.862880e+00    9.644900e+01
  6.865996e+00    9.641838e+01
  6.869112e+00    9.629105e+01
  6.872228e+00    9.604347e+01
  6.875344e+00    9.594343e+01
  6.878460e+00    9.604976e+01
  6.881575e+00    9.620921e+01
  6.884691e+00    9.644800e+01
  6.887807e+00    9.656693e+01
  6.890923e+00    9.661258e+01
  6.894039e+00    9.659119e+01
  6.897155e+00    9.663728e+01
  6.900271e+00    9.672253e+01
  6.903387e+00    9.677882e+01
  6.906503e+00    9.710905e+01
  6.909619e+00    9.737658e+01
  6.912735e+00    9.747001e+01
  6.915851e+00    9.753898e+01
  6.918967e+00    9.819704e+01
  6.922083e+00    9.922207e+01
  6.925199e+00    1.005233e+02
  6.928315e+00    1.024758e+02
  6.931431e+00    1.053452e+02
  6.934547e+00    1.098229e+02
  6.937663e+00    1.173233e+02
  6.940779e+00    1.304447e+02
  6.943894e+00    1.524608e+02
  6.947010e+00    1.869504e+02
  6.950126e+00    2.378000e+02
  6.953242e+00    3.043782e+02
  6.956358e+00    3.799274e+02
  6.959474e+00    4.532097e+02
  6.962590e+00    5.038635e+02
  6.965706e+00    5.232850e+02
  6.968822e+00    5.048163e+02
  6.971938e+00    4.518591e+02
  6.975054e+00    3.742623e+02
  6.978170e+00    2.919407e+02
  6.981286e+00    2.234556e+02
  6.984402e+00    1.750476e+02
  6.987518e+00    1.440911e+02
  6.990634e+00    1.251712e+02
  6.993750e+00    1.140552e+02
  6.996866e+00    1.074212e+02
  6.999982e+00    1.031609e+02
  7.003097e+00    1.000422e+02
  7.006213e+00    9.805554e+01
  7.009329e+00    9.675510e+01
  7.012445e+00    9.565553e+01
  7.015561e+00    9.461156e+01
  7.018677e+00    9.380625e+01
  7.021793e+00    9.300948e+01
  7.024909e+00    9.269043e+01
  7.028025e+00    9.253372e+01
  7.031141e+00    9.244175e+01
  7.034257e+00    9.191212e+01
  7.037373e+00    9.142065e+01
  7.040489e+00    9.111718e+01
  7.043605e+00    9.079630e+01
  7.046721e+00    9.046190e+01
  7.049837e+00    9.024895e+01
  7.052953e+00    8.984912e+01
  7.056069e+00    8.958625e+01
  7.059185e+00    8.928689e+01
  7.062301e+00    8.919566e+01
  7.065416e+00    8.927393e+01
  7.068532e+00    8.926024e+01
  7.071648e+00    8.918802e+01
  7.074764e+00    8.885352e+01
  7.077880e+00    8.841924e+01
  7.080996e+00    8.806725e+01
  7.084112e+00    8.772520e+01
  7.087228e+00    8.786764e+01
  7.090344e+00    8.789099e+01
  7.093460e+00    8.812630e+01
  7.096576e+00    8.792820e+01
  7.099692e+00    8.786352e+01
  7.102808e+00    8.786466e+01
  7.105924e+00    8.804709e+01
  7.109040e+00    8.778534e+01
  7.112156e+00    8.762866e+01
  7.115272e+00    8.745819e+01
  7.118388e+00    8.730768e+01
  7.121504e+00    8.714075e+01
  7.124620e+00    8.717146e+01
  7.127735e+00    8.721349e+01
  7.130851e+00    8.730359e+01
  7.133967e+00    8.726907e+01
  7.137083e+00    8.715314e+01
  7.140199e+00    8.700532e+01
  7.143315e+00    8.687539e+01
  7.146431e+00    8.671939e+01
  7.149547e+00    8.654192e+01
  7.152663e+00    8.657562e+01
  7.155779e+00    8.683131e+01
  7.158895e+00    8.704626e+01
  7.162011e+00    8.714011e+01
  7.165127e+00    8.678474e+01
  7.168243e+00    8.685893e+01
  7.171359e+00    8.697406e+01
  7.174475e+00    8.713177e+01
  7.177591e+00    8.707999e+01
  7.180707e+00    8.692991e+01
  7.183823e+00    8.712972e+01
  7.186939e+00    8.730341e+01
  7.190054e+00    8.762286e+01
  7.193170e+00    8.830888e+01
  7.196286e+00    8.890064e+01
  7.199402e+00    8.929192e+01
  7.202518e+00    8.929875e+01
  7.205634e+00    8.951694e+01
  7.208750e+00    8.968099e+01
  7.211866e+00    9.025748e+01
  7.214982e+00    9.065356e+01
  7.218098e+00    9.108357e+01
  7.221214e+00    9.147569e+01
  7.224330e+00    9.242333e+01
  7.227446e+00    9.370480e+01
  7.230562e+00    9.556151e+01
  7.233678e+00    9.822440e+01
  7.236794e+00    1.022791e+02
  7.239910e+00    1.087829e+02
  7.243026e+00    1.194314e+02
  7.246142e+00    1.366784e+02
  7.249258e+00    1.637664e+02
  7.252373e+00    2.034595e+02
  7.255489e+00    2.556534e+02
  7.258605e+00    3.144306e+02
  7.261721e+00    3.688687e+02
  7.264837e+00    4.078908e+02
  7.267953e+00    4.237549e+02
  7.271069e+00    4.190000e+02
  7.274185e+00    4.023034e+02
  7.277301e+00    3.803831e+02
  7.280417e+00    3.550692e+02
  7.283533e+00    3.234121e+02
  7.286649e+00    2.836161e+02
  7.289765e+00    2.384835e+02
  7.292881e+00    1.947669e+02
  7.295997e+00    1.581435e+02
  7.299113e+00    1.318886e+02
  7.302229e+00    1.147255e+02
  7.305345e+00    1.043751e+02
  7.308461e+00    9.828837e+01
  7.311577e+00    9.436443e+01
  7.314692e+00    9.195247e+01
  7.317808e+00    9.014444e+01
  7.320924e+00    8.890203e+01
  7.324040e+00    8.780404e+01
  7.327156e+00    8.728112e+01
  7.330272e+00    8.679031e+01
  7.333388e+00    8.645403e+01
  7.336504e+00    8.602499e+01
  7.339620e+00    8.551639e+01
  7.342736e+00    8.475540e+01
  7.345852e+00    8.431998e+01
  7.348968e+00    8.419444e+01
  7.352084e+00    8.387002e+01
  7.355200e+00    8.371665e+01
  7.358316e+00    8.323861e+01
  7.361432e+00    8.300507e+01
  7.364548e+00    8.276244e+01
  7.367664e+00    8.259371e+01
  7.370780e+00    8.248532e+01
  7.373896e+00    8.205017e+01
  7.377011e+00    8.186059e+01
  7.380127e+00    8.150056e+01
  7.383243e+00    8.131813e+01
  7.386359e+00    8.112971e+01
  7.389475e+00    8.119304e+01
  7.392591e+00    8.106327e+01
  7.395707e+00    8.111918e+01
  7.398823e+00    8.092981e+01
  7.401939e+00    8.095660e+01
  7.405055e+00    8.065815e+01
  7.408171e+00    8.070460e+01
  7.411287e+00    8.056871e+01
  7.414403e+00    8.039988e+01
  7.417519e+00    8.033661e+01
  7.420635e+00    8.045694e+01
  7.423751e+00    8.060544e+01
  7.426867e+00    8.040798e+01
  7.429983e+00    8.021506e+01
  7.433099e+00    8.015228e+01
  7.436215e+00    8.026517e+01
  7.439330e+00    8.045906e+01
  7.442446e+00    8.040197e+01
  7.445562e+00    8.014429e+01
  7.448678e+00    7.992519e+01
  7.451794e+00    7.969662e+01
  7.454910e+00    7.994430e+01
  7.458026e+00    7.988314e+01
  7.461142e+00    7.997176e+01
  7.464258e+00    7.982778e+01
  7.467374e+00    8.002052e+01
  7.470490e+00    8.009692e+01
  7.473606e+00    7.988737e+01
  7.476722e+00    7.961459e+01
  7.479838e+00    7.942394e+01
  7.482954e+00    7.935365e+01
  7.486070e+00    7.944755e+01
  7.489186e+00    7.950787e+01
  7.492302e+00    7.960914e+01
  7.495418e+00    7.944117e+01
  7.498534e+00    7.934151e+01
  7.501649e+00    7.904722e+01
  7.504765e+00    7.921042e+01
  7.507881e+00    7.943832e+01
  7.510997e+00    7.961537e+01
  7.514113e+00    7.976986e+01
  7.517229e+00    7.961621e+01
  7.520345e+00    7.955740e+01
  7.523461e+00    7.933631e+01
  7.526577e+00    7.935956e+01
  7.529693e+00    7.947745e+01
  7.532809e+00    7.966328e+01
  7.535925e+00    7.973956e+01
  7.539041e+00    7.996397e+01
  7.542157e+00    8.014090e+01
  7.545273e+00    8.013120e+01
  7.548389e+00    7.969106e+01
  7.551505e+00    7.980192e+01
  7.554621e+00    7.990290e+01
  7.557737e+00    8.005123e+01
  7.560853e+00    7.991269e+01
  7.563968e+00    8.007934e+01
  7.567084e+00    8.009711e+01
  7.570200e+00    8.030363e+01
  7.573316e+00    8.054288e+01
  7.576432e+00    8.094720e+01
  7.579548e+00    8.108236e+01
  7.582664e+00    8.116117e+01
  7.585780e+00    8.143260e+01
  7.588896e+00    8.157483e+01
  7.592012e+00    8.183820e+01
  7.595128e+00    8.196480e+01
  7.598244e+00    8.219298e+01
  7.601360e+00    8.231942e+01
  7.604476e+00    8.267876e+01
  7.607592e+00    8.330032e+01
  7.610708e+00    8.395863e+01
  7.613824e+00    8.464829e+01
  7.616940e+00    8.559110e+01
  7.620056e+00    8.703930e+01
  7.623172e+00    8.887350e+01
  7.626287e+00    9.127068e+01
  7.629403e+00    9.512553e+01
  7.632519e+00    1.009005e+02
  7.635635e+00    1.108137e+02
  7.638751e+00    1.256159e+02
  7.641867e+00    1.471634e+02
  7.644983e+00    1.758897e+02
  7.648099e+00    2.101401e+02
  7.651215e+00    2.474745e+02
  7.654331e+00    2.835002e+02
  7.657447e+00    3.155477e+02
  7.660563e+00    3.420763e+02
  7.663679e+00    3.613050e+02
  7.666795e+00    3.719597e+02
  7.669911e+00    3.703387e+02
  7.673027e+00    3.542866e+02
  7.676143e+00    3.235787e+02
  7.679259e+00    2.810924e+02
  7.682375e+00    2.339123e+02
  7.685491e+00    1.901521e+02
  7.688606e+00    1.545203e+02
  7.691722e+00    1.289178e+02
  7.694838e+00    1.125559e+02
  7.697954e+00    1.023591e+02
  7.701070e+00    9.613572e+01
  7.704186e+00    9.197622e+01
  7.707302e+00    8.928154e+01
  7.710418e+00    8.763533e+01
  7.713534e+00    8.641572e+01
  7.716650e+00    8.535658e+01
  7.719766e+00    8.431171e+01
  7.722882e+00    8.351512e+01
  7.725998e+00    8.280697e+01
  7.729114e+00    8.230804e+01
  7.732230e+00    8.194509e+01
  7.735346e+00    8.170041e+01
  7.738462e+00    8.139315e+01
  7.741578e+00    8.097578e+01
  7.744694e+00    8.046397e+01
  7.747810e+00    8.027953e+01
  7.750925e+00    8.010521e+01
  7.754041e+00    8.009134e+01
  7.757157e+00    7.974834e+01
  7.760273e+00    7.959081e+01
  7.763389e+00    7.957266e+01
  7.766505e+00    7.969847e+01
  7.769621e+00    7.951855e+01
  7.772737e+00    7.908879e+01
  7.775853e+00    7.882784e+01
  7.778969e+00    7.870507e+01
  7.782085e+00    7.863039e+01
  7.785201e+00    7.866169e+01
  7.788317e+00    7.867177e+01
  7.791433e+00    7.876486e+01
  7.794549e+00    7.873695e+01
  7.797665e+00    7.889783e+01
  7.800781e+00    7.871119e+01
  7.803897e+00    7.852674e+01
  7.807013e+00    7.821463e+01
  7.810129e+00    7.851334e+01
  7.813244e+00    7.865633e+01
  7.816360e+00    7.861788e+01
  7.819476e+00    7.822336e+01
  7.822592e+00    7.790864e+01
  7.825708e+00    7.789732e+01
  7.828824e+00    7.787717e+01
  7.831940e+00    7.786916e+01
  7.835056e+00    7.801885e+01
  7.838172e+00    7.818838e+01
  7.841288e+00    7.837431e+01
  7.844404e+00    7.832016e+01
  7.847520e+00    7.805694e+01
  7.850636e+00    7.756542e+01
  7.853752e+00    7.709047e+01
  7.856868e+00    7.729604e+01
  7.859984e+00    7.758862e+01
  7.863100e+00    7.810735e+01
  7.866216e+00    7.810842e+01
  7.869332e+00    7.839606e+01
  7.872448e+00    7.851205e+01
  7.875563e+00    7.840971e+01
  7.878679e+00    7.810007e+01
  7.881795e+00    7.781573e+01
  7.884911e+00    7.793949e+01
  7.888027e+00    7.812842e+01
  7.891143e+00    7.825159e+01
  7.894259e+00    7.821000e+01
  7.897375e+00    7.809380e+01
  7.900491e+00    7.800853e+01
  7.903607e+00    7.829239e+01
  7.906723e+00    7.832567e+01
  7.909839e+00    7.852569e+01
  7.912955e+00    7.837080e+01
  7.916071e+00    7.846931e+01
  7.919187e+00    7.877533e+01
  7.922303e+00    7.905846e+01
  7.925419e+00    7.916512e+01
  7.928535e+00    7.911381e+01
  7.931651e+00    7.884810e+01
  7.934767e+00    7.856766e+01
  7.937882e+00    7.846232e+01
  7.940998e+00    7.887843e+01
  7.944114e+00    7.893594e+01
  7.947230e+00    7.892434e+01
  7.950346e+00    7.888364e+01
  7.953462e+00    7.911624e+01
  7.956578e+00    7.910256e+01
  7.959694e+00    7.930490e+01
  7.962810e+00    7.925890e+01
  7.965926e+00    7.942838e+01
  7.969042e+00    7.978609e+01
  7.972158e+00    8.013963e+01
  7.975274e+00    8.031094e+01
  7.978390e+00    8.048646e+01
  7.981506e+00    8.089418e+01
  7.984622e+00    8.152342e+01
  7.987738e+00    8.250911e+01
  7.990854e+00    8.411647e+01
  7.993970e+00    8.658602e+01
  7.997086e+00    8.994987e+01
  8.000201e+00    9.487582e+01
  8.003317e+00    1.015887e+02
  8.006433e+00    1.098373e+02
  8.009549e+00    1.171770e+02
  8.012665e+00    1.221648e+02
  8.015781e+00    1.240547e+02
  8.018897e+00    1.220028e+02
  8.022013e+00    1.181264e+02
  8.025129e+00    1.144512e+02
  8.028245e+00    1.149703e+02
  8.031361e+00    1.214146e+02
  8.034477e+00    1.343094e+02
  8.037593e+00    1.510616e+02
  8.040709e+00    1.640276e+02
  8.043825e+00    1.727768e+02
  8.046941e+00    1.726251e+02
  8.050057e+00    1.649646e+02
  8.053173e+00    1.506079e+02
  8.056289e+00    1.329914e+02
  8.059405e+00    1.165279e+02
  8.062520e+00    1.035610e+02
  8.065636e+00    9.474823e+01
  8.068752e+00    8.897289e+01
  8.071868e+00    8.577110e+01
  8.074984e+00    8.364997e+01
  8.078100e+00    8.259578e+01
  8.081216e+00    8.216083e+01
  8.084332e+00    8.194498e+01
  8.087448e+00    8.145329e+01
  8.090564e+00    8.101425e+01
  8.093680e+00    8.084409e+01
  8.096796e+00    8.094185e+01
  8.099912e+00    8.159725e+01
  8.103028e+00    8.218450e+01
  8.106144e+00    8.243346e+01
  8.109260e+00    8.215588e+01
  8.112376e+00    8.173156e+01
  8.115492e+00    8.180703e+01
  8.118608e+00    8.208715e+01
  8.121724e+00    8.237646e+01
  8.124839e+00    8.210348e+01
  8.127955e+00    8.200353e+01
  8.131071e+00    8.234824e+01
  8.134187e+00    8.263152e+01
  8.137303e+00    8.283076e+01
  8.140419e+00    8.285636e+01
  8.143535e+00    8.313714e+01
  8.146651e+00    8.350258e+01
  8.149767e+00    8.383546e+01
  8.152883e+00    8.410175e+01
  8.155999e+00    8.416571e+01
  8.159115e+00    8.434277e+01
  8.162231e+00    8.467506e+01
  8.165347e+00    8.493340e+01
  8.168463e+00    8.549798e+01
  8.171579e+00    8.606549e+01
  8.174695e+00    8.624708e+01
  8.177811e+00    8.698587e+01
  8.180927e+00    8.789040e+01
  8.184043e+00    8.894159e+01
  8.187158e+00    8.912013e+01
  8.190274e+00    8.952464e+01
  8.193390e+00    9.011523e+01
  8.196506e+00    9.143416e+01
  8.199622e+00    9.309427e+01
  8.202738e+00    9.493657e+01
  8.205854e+00    9.709406e+01
  8.208970e+00    1.000411e+02
  8.212086e+00    1.049598e+02
  8.215202e+00    1.129694e+02
  8.218318e+00    1.254071e+02
  8.221434e+00    1.446314e+02
  8.224550e+00    1.749976e+02
  8.227666e+00    2.211527e+02
  8.230782e+00    2.822287e+02
  8.233898e+00    3.588947e+02
  8.237014e+00    4.431224e+02
  8.240130e+00    5.176312e+02
  8.243246e+00    5.702574e+02
  8.246362e+00    5.952092e+02
  8.249477e+00    5.922563e+02
  8.252593e+00    5.743798e+02
  8.255709e+00    5.492390e+02
  8.258825e+00    5.195473e+02
  8.261941e+00    4.827495e+02
  8.265057e+00    4.353262e+02
  8.268173e+00    3.773922e+02
  8.271289e+00    3.165355e+02
  8.274405e+00    2.591469e+02
  8.277521e+00    2.080046e+02
  8.280637e+00    1.688236e+02
  8.283753e+00    1.424798e+02
  8.286869e+00    1.249746e+02
  8.289985e+00    1.140377e+02
  8.293101e+00    1.070564e+02
  8.296217e+00    1.025482e+02
  8.299333e+00    9.905322e+01
  8.302449e+00    9.664391e+01
  8.305565e+00    9.489740e+01
  8.308681e+00    9.322329e+01
  8.311796e+00    9.205072e+01
  8.314912e+00    9.116658e+01
  8.318028e+00    9.045759e+01
  8.321144e+00    8.975803e+01
  8.324260e+00    8.926427e+01
  8.327376e+00    8.918401e+01
  8.330492e+00    8.900131e+01
  8.333608e+00    8.892230e+01
  8.336724e+00    8.854976e+01
  8.339840e+00    8.853187e+01
  8.342956e+00    8.814323e+01
  8.346072e+00    8.793279e+01
  8.349188e+00    8.761507e+01
  8.352304e+00    8.728954e+01
  8.355420e+00    8.728287e+01
  8.358536e+00    8.748082e+01
  8.361652e+00    8.772444e+01
  8.364768e+00    8.740269e+01
  8.367884e+00    8.708272e+01
  8.371000e+00    8.680602e+01
  8.374115e+00    8.685806e+01
  8.377231e+00    8.685272e+01
  8.380347e+00    8.713514e+01
  8.383463e+00    8.740668e+01
  8.386579e+00    8.755144e+01
  8.389695e+00    8.734810e+01
  8.392811e+00    8.769723e+01
  8.395927e+00    8.836320e+01
  8.399043e+00    8.967706e+01
  8.402159e+00    9.031349e+01
  8.405275e+00    9.128548e+01
  8.408391e+00    9.250423e+01
  8.411507e+00    9.423589e+01
  8.414623e+00    9.698514e+01
  8.417739e+00    1.017743e+02
  8.420855e+00    1.088208e+02
  8.423971e+00    1.186514e+02
  8.427087e+00    1.322617e+02
  8.430203e+00    1.488904e+02
  8.433319e+00    1.666636e+02
  8.436434e+00    1.852740e+02
  8.439550e+00    2.013100e+02
  8.442666e+00    2.118797e+02
  8.445782e+00    2.155946e+02
  8.448898e+00    2.124660e+02
  8.452014e+00    2.050040e+02
  8.455130e+00    1.957768e+02
  8.458246e+00    1.842105e+02
  8.461362e+00    1.715155e+02
  8.464478e+00    1.589383e+02
  8.467594e+00    1.454377e+02
  8.470710e+00    1.327354e+02
  8.473826e+00    1.216843e+02
  8.476942e+00    1.121864e+02
  8.480058e+00    1.046426e+02
  8.483174e+00    9.996541e+01
  8.486290e+00    9.734701e+01
  8.489406e+00    9.543877e+01
  8.492522e+00    9.427513e+01
  8.495638e+00    9.332971e+01
  8.498753e+00    9.292478e+01
  8.501869e+00    9.289834e+01
  8.504985e+00    9.242853e+01
  8.508101e+00    9.225217e+01
  8.511217e+00    9.156637e+01
  8.514333e+00    9.170927e+01
  8.517449e+00    9.170210e+01
  8.520565e+00    9.222324e+01
  8.523681e+00    9.256898e+01
  8.526797e+00    9.295534e+01
  8.529913e+00    9.334126e+01
  8.533029e+00    9.384949e+01
  8.536145e+00    9.414534e+01
  8.539261e+00    9.448099e+01
  8.542377e+00    9.488221e+01
  8.545493e+00    9.547778e+01
  8.548609e+00    9.640447e+01
  8.551725e+00    9.714519e+01
  8.554841e+00    9.825045e+01
  8.557957e+00    9.956287e+01
  8.561072e+00    1.011957e+02
  8.564188e+00    1.023916e+02
  8.567304e+00    1.034723e+02
  8.570420e+00    1.049376e+02
  8.573536e+00    1.071647e+02
  8.576652e+00    1.106492e+02
  8.579768e+00    1.147376e+02
  8.582884e+00    1.207674e+02
  8.586000e+00    1.293754e+02
  8.589116e+00    1.411927e+02
  8.592232e+00    1.567737e+02
  8.595348e+00    1.800405e+02
  8.598464e+00    2.171124e+02
  8.601580e+00    2.679409e+02
  8.604696e+00    3.395542e+02
  8.607812e+00    4.320172e+02
  8.610928e+00    5.342151e+02
  8.614044e+00    6.354417e+02
  8.617160e+00    7.239635e+02
  8.620276e+00    7.751356e+02
  8.623391e+00    7.899241e+02
  8.626507e+00    7.718228e+02
  8.629623e+00    7.312557e+02
  8.632739e+00    6.818568e+02
  8.635855e+00    6.277921e+02
  8.638971e+00    5.668341e+02
  8.642087e+00    4.994629e+02
  8.645203e+00    4.309529e+02
  8.648319e+00    3.577477e+02
  8.651435e+00    2.922550e+02
  8.654551e+00    2.385952e+02
  8.657667e+00    1.949042e+02
  8.660783e+00    1.638575e+02
  8.663899e+00    1.440433e+02
  8.667015e+00    1.308454e+02
  8.670131e+00    1.221547e+02
  8.673247e+00    1.161840e+02
  8.676363e+00    1.116244e+02
  8.679479e+00    1.078675e+02
  8.682595e+00    1.052196e+02
  8.685710e+00    1.030997e+02
  8.688826e+00    1.014362e+02
  8.691942e+00    9.982092e+01
  8.695058e+00    9.860319e+01
  8.698174e+00    9.763549e+01
  8.701290e+00    9.756058e+01
  8.704406e+00    9.748128e+01
  8.707522e+00    9.738393e+01
  8.710638e+00    9.645704e+01
  8.713754e+00    9.584299e+01
  8.716870e+00    9.534171e+01
  8.719986e+00    9.549142e+01
  8.723102e+00    9.521263e+01
  8.726218e+00    9.537461e+01
  8.729334e+00    9.528461e+01
  8.732450e+00    9.554369e+01
  8.735566e+00    9.557052e+01
  8.738682e+00    9.626638e+01
  8.741798e+00    9.763494e+01
  8.744914e+00    1.020191e+02
  8.748029e+00    1.115167e+02
  8.751145e+00    1.246071e+02
  8.754261e+00    1.456376e+02
  8.757377e+00    1.734473e+02
  8.760493e+00    2.053809e+02
  8.763609e+00    2.355858e+02
  8.766725e+00    2.623826e+02
  8.769841e+00    2.744737e+02
  8.772957e+00    2.784166e+02
  8.776073e+00    2.624290e+02
  8.779189e+00    2.357225e+02
  8.782305e+00    2.010909e+02
  8.785421e+00    1.668827e+02
  8.788537e+00    1.385857e+02
  8.791653e+00    1.184732e+02
  8.794769e+00    1.061512e+02
  8.797885e+00    9.876686e+01
  8.801001e+00    9.562942e+01
  8.804117e+00    9.385870e+01
  8.807233e+00    9.309826e+01
  8.810348e+00    9.242228e+01
  8.813464e+00    9.267001e+01
  8.816580e+00    9.252914e+01
  8.819696e+00    9.240171e+01
  8.822812e+00    9.215801e+01
  8.825928e+00    9.205524e+01
  8.829044e+00    9.227647e+01
  8.832160e+00    9.205585e+01
  8.835276e+00    9.228661e+01
  8.838392e+00    9.310695e+01
  8.841508e+00    9.385851e+01
  8.844624e+00    9.468185e+01
  8.847740e+00    9.587116e+01
  8.850856e+00    9.770757e+01
  8.853972e+00    9.924995e+01
  8.857088e+00    1.015621e+02
  8.860204e+00    1.060632e+02
  8.863320e+00    1.132763e+02
  8.866436e+00    1.248075e+02
  8.869552e+00    1.420133e+02
  8.872667e+00    1.683484e+02
  8.875783e+00    2.070952e+02
  8.878899e+00    2.544416e+02
  8.882015e+00    3.153129e+02
  8.885131e+00    3.748076e+02
  8.888247e+00    4.240279e+02
  8.891363e+00    4.582375e+02
  8.894479e+00    4.677693e+02
  8.897595e+00    4.618788e+02
  8.900711e+00    4.487497e+02
  8.903827e+00    4.303315e+02
  8.906943e+00    4.077381e+02
  8.910059e+00    3.779845e+02
  8.913175e+00    3.415136e+02
  8.916291e+00    2.984131e+02
  8.919407e+00    2.535234e+02
  8.922523e+00    2.093692e+02
  8.925639e+00    1.726784e+02
  8.928755e+00    1.455046e+02
  8.931871e+00    1.253279e+02
  8.934986e+00    1.111944e+02
  8.938102e+00    1.029074e+02
  8.941218e+00    9.781857e+01
  8.944334e+00    9.443994e+01
  8.947450e+00    9.169525e+01
  8.950566e+00    9.028729e+01
  8.953682e+00    8.910254e+01
  8.956798e+00    8.838934e+01
  8.959914e+00    8.759859e+01
  8.963030e+00    8.750850e+01
  8.966146e+00    8.730335e+01
  8.969262e+00    8.748463e+01
  8.972378e+00    8.778499e+01
  8.975494e+00    9.012277e+01
  8.978610e+00    9.634406e+01
  8.981726e+00    1.073935e+02
  8.984842e+00    1.242440e+02
  8.987958e+00    1.473462e+02
  8.991074e+00    1.715506e+02
  8.994190e+00    1.968493e+02
  8.997305e+00    2.170629e+02
  9.000421e+00    2.229402e+02
  9.003537e+00    2.173448e+02
  9.006653e+00    1.966468e+02
  9.009769e+00    1.710349e+02
  9.012885e+00    1.469496e+02
  9.016001e+00    1.273283e+02
  9.019117e+00    1.093419e+02
  9.022233e+00    9.699113e+01
  9.025349e+00    8.743262e+01
  9.028465e+00    8.156951e+01
  9.031581e+00    7.914532e+01
  9.034697e+00    7.734367e+01
  9.037813e+00    7.566692e+01
  9.040929e+00    7.463953e+01
  9.044045e+00    7.471322e+01
  9.047161e+00    7.472452e+01
  9.050277e+00    7.464975e+01
  9.053393e+00    7.465585e+01
  9.056509e+00    7.407280e+01
  9.059624e+00    7.358495e+01
  9.062740e+00    7.227045e+01
  9.065856e+00    7.264558e+01
  9.068972e+00    7.225689e+01
  9.072088e+00    7.161408e+01
  9.075204e+00    7.018050e+01
  9.078320e+00    6.968100e+01
  9.081436e+00    6.948895e+01
  9.084552e+00    6.992252e+01
  9.087668e+00    6.965603e+01
  9.090784e+00    6.979587e+01
  9.093900e+00    7.015008e+01
  9.097016e+00    7.035275e+01
  9.100132e+00    7.104403e+01
  9.103248e+00    7.197617e+01
  9.106364e+00    7.525182e+01
  9.109480e+00    7.833233e+01
  9.112596e+00    8.192271e+01
  9.115712e+00    8.828673e+01
  9.118828e+00    9.836758e+01
  9.121943e+00    1.126305e+02
  9.125059e+00    1.361733e+02
  9.128175e+00    1.589826e+02
  9.131291e+00    1.821985e+02
  9.134407e+00    2.051089e+02
  9.137523e+00    2.124227e+02
  9.140639e+00    2.096912e+02
  9.143755e+00    2.009183e+02
  9.146871e+00    1.841005e+02
  9.149987e+00    1.754549e+02
  9.153103e+00    1.680673e+02
  9.156219e+00    1.640444e+02
  9.159335e+00    1.583462e+02
  9.162451e+00    1.529171e+02
  9.165567e+00    1.437343e+02
  9.168683e+00    1.256242e+02
  9.171799e+00    1.130183e+02
  9.174915e+00    9.904946e+01
  9.178031e+00    8.591953e+01
  9.181147e+00    8.139440e+01
  9.184262e+00    7.869508e+01
  9.187378e+00    7.687460e+01
  9.190494e+00    7.767848e+01
  9.193610e+00    7.792717e+01
  9.196726e+00    7.788383e+01
  9.199842e+00    7.645345e+01
  9.202958e+00    7.956788e+01
  9.206074e+00    8.106091e+01
  9.209190e+00    7.986549e+01
  9.212306e+00    7.692845e+01
  9.215422e+00    7.517058e+01
  9.218538e+00    7.361693e+01
  9.221654e+00    7.332433e+01
  9.224770e+00    7.299645e+01
  9.227886e+00    7.281488e+01
  9.231002e+00    7.227679e+01
  9.234118e+00    7.440173e+01
  9.237234e+00    7.616504e+01
  9.240350e+00    7.798536e+01
  9.243466e+00    7.599310e+01
  9.246581e+00    7.799218e+01
  9.249697e+00    8.191774e+01
  9.252813e+00    9.499841e+01
  9.255929e+00    1.033259e+02
  9.259045e+00    1.119831e+02
  9.262161e+00    1.257598e+02
  9.265277e+00    1.465101e+02
  9.268393e+00    1.598790e+02
  9.271509e+00    1.734781e+02
  9.274625e+00    1.848397e+02
  9.277741e+00    1.808753e+02
  9.280857e+00    1.738581e+02
  9.283973e+00    1.549604e+02
  9.287089e+00    1.312647e+02
  9.290205e+00    1.157468e+02
  9.293321e+00    1.006486e+02
  9.296437e+00    7.996130e+01
  9.299553e+00    6.596819e+01
  9.302669e+00    5.208210e+01
  9.305785e+00    3.581480e+01
  9.308900e+00    2.842401e+01
  9.312016e+00    2.259664e+01
  9.315132e+00    1.500663e+01
  9.318248e+00    6.876984e+00
  9.321364e+00    5.529201e+00
  9.324480e+00    5.193910e+00
  9.327596e+00    3.112383e+00
  9.330712e+00    1.186810e+00
  9.333828e+00    4.453652e-01
  9.336944e+00    2.905149e+00
  9.340060e+00   -1.622465e-02
  9.343176e+00   -8.485951e-01
  9.346292e+00    0.000000e+00
