# == pyFAI calibration ==
# SplineFile: None
# PixelSize: 2.000e-04, 2.000e-04 m
# PONI: 1.995e-01, 2.016e-01 m
# Distance Sample to Detector: 1.79502286468 m
# Rotations: -0.004483 0.004646 0.000019 rad
# 
# == Fit2d calibration ==
# Distance Sample-beamCenter: 1795.060 mm
# Center: x=1048.052, y=1039.198 pix
# Tilt: 0.370 deg  TiltPlanRot: 46.021 deg
# 
# Wavelength: 1.4235e-11
# Polarization factor: None
# Normalization factor: 1.0
# --> /Volumes/desy/desy_2018/TiAlNi/TiAlNi_1-00151.txt
#       2th_deg             I 
  1.557975e-03   -2.506533e+00
  4.673925e-03   -1.415440e+00
  7.789875e-03    4.911003e+00
  1.090582e-02    4.646075e+00
  1.402177e-02    3.464490e+00
  1.713772e-02    1.942813e+00
  2.025367e-02    6.201457e-01
  2.336962e-02   -3.216032e-01
  2.648557e-02   -9.442006e-01
  2.960152e-02    3.704339e-01
  3.271747e-02    1.190648e+00
  3.583342e-02    1.062984e+00
  3.894937e-02   -1.765424e-01
  4.206532e-02    1.183693e+00
  4.518127e-02    2.034410e+00
  4.829722e-02    1.695606e+00
  5.141317e-02   -4.449343e-01
  5.452912e-02    8.263277e-01
  5.764507e-02    7.904826e-01
  6.076102e-02    9.186762e-01
  6.387697e-02    4.298232e-01
  6.699292e-02    3.528890e-01
  7.010887e-02   -3.073398e-01
  7.322482e-02    1.141731e+00
  7.634077e-02    1.602267e+00
  7.945672e-02    1.960372e+00
  8.257267e-02    8.091444e-01
  8.568862e-02    6.175874e-01
  8.880457e-02    2.078089e-01
  9.192052e-02    1.965140e+00
  9.503647e-02    3.293709e+00
  9.815242e-02    3.605256e+00
  1.012684e-01    2.778051e+00
  1.043843e-01    2.127883e+00
  1.075003e-01    1.815064e+00
  1.106162e-01    2.485904e+00
  1.137322e-01    2.969321e+00
  1.168481e-01    1.862408e+00
  1.199641e-01    2.145158e+00
  1.230800e-01    2.472798e+00
  1.261960e-01    2.939671e+00
  1.293119e-01    3.016022e+00
  1.324279e-01    3.558085e+00
  1.355438e-01    2.616813e+00
  1.386598e-01    1.995382e+00
  1.417757e-01    2.286759e+00
  1.448917e-01    2.699389e+00
  1.480076e-01    2.982967e+00
  1.511236e-01    3.388057e+00
  1.542395e-01    4.055107e+00
  1.573555e-01    4.343173e+00
  1.604714e-01    4.749036e+00
  1.635874e-01    6.995208e+00
  1.667033e-01    9.476534e+00
  1.698193e-01    1.149491e+01
  1.729352e-01    1.408959e+01
  1.760512e-01    1.643580e+01
  1.791671e-01    1.900173e+01
  1.822831e-01    2.176965e+01
  1.853990e-01    2.371248e+01
  1.885150e-01    2.594342e+01
  1.916309e-01    2.783190e+01
  1.947469e-01    2.898182e+01
  1.978628e-01    3.069682e+01
  2.009788e-01    3.222607e+01
  2.040947e-01    3.479483e+01
  2.072107e-01    3.714236e+01
  2.103266e-01    3.886426e+01
  2.134426e-01    4.081942e+01
  2.165585e-01    4.300924e+01
  2.196745e-01    4.376720e+01
  2.227904e-01    4.444587e+01
  2.259064e-01    4.606826e+01
  2.290223e-01    4.790128e+01
  2.321383e-01    4.948792e+01
  2.352542e-01    5.111134e+01
  2.383702e-01    5.347079e+01
  2.414861e-01    5.540839e+01
  2.446021e-01    5.653884e+01
  2.477180e-01    5.721142e+01
  2.508340e-01    5.513983e+01
  2.539499e-01    5.474036e+01
  2.570659e-01    5.859043e+01
  2.601818e-01    6.207021e+01
  2.632978e-01    6.448637e+01
  2.664137e-01    6.620031e+01
  2.695297e-01    6.910467e+01
  2.726456e-01    7.191346e+01
  2.757616e-01    7.406249e+01
  2.788775e-01    7.680860e+01
  2.819935e-01    7.905077e+01
  2.851094e-01    7.978283e+01
  2.882254e-01    8.011788e+01
  2.913413e-01    8.049437e+01
  2.944573e-01    8.241006e+01
  2.975732e-01    8.430476e+01
  3.006892e-01    8.605283e+01
  3.038051e-01    8.584975e+01
  3.069211e-01    8.715361e+01
  3.100370e-01    8.832519e+01
  3.131530e-01    8.973211e+01
  3.162689e-01    9.050024e+01
  3.193849e-01    9.172282e+01
  3.225008e-01    9.298352e+01
  3.256168e-01    9.465895e+01
  3.287327e-01    9.586795e+01
  3.318487e-01    9.753258e+01
  3.349646e-01    9.870301e+01
  3.380806e-01    1.004876e+02
  3.411965e-01    1.026766e+02
  3.443125e-01    1.045505e+02
  3.474284e-01    1.055582e+02
  3.505444e-01    1.078069e+02
  3.536603e-01    1.102304e+02
  3.567763e-01    1.122827e+02
  3.598922e-01    1.144744e+02
  3.630082e-01    1.163682e+02
  3.661241e-01    1.171829e+02
  3.692401e-01    1.180428e+02
  3.723560e-01    1.199592e+02
  3.754720e-01    1.210270e+02
  3.785879e-01    1.225302e+02
  3.817039e-01    1.233742e+02
  3.848198e-01    1.252343e+02
  3.879358e-01    1.273325e+02
  3.910517e-01    1.288271e+02
  3.941677e-01    1.305471e+02
  3.972836e-01    1.319408e+02
  4.003996e-01    1.337930e+02
  4.035155e-01    1.362095e+02
  4.066315e-01    1.374871e+02
  4.097474e-01    1.388527e+02
  4.128634e-01    1.404727e+02
  4.159793e-01    1.420029e+02
  4.190953e-01    1.438413e+02
  4.222112e-01    1.454966e+02
  4.253272e-01    1.471436e+02
  4.284431e-01    1.488562e+02
  4.315591e-01    1.502798e+02
  4.346750e-01    1.524882e+02
  4.377910e-01    1.551978e+02
  4.409069e-01    1.569495e+02
  4.440229e-01    1.595334e+02
  4.471388e-01    1.610772e+02
  4.502548e-01    1.627193e+02
  4.533707e-01    1.649083e+02
  4.564867e-01    1.670855e+02
  4.596026e-01    1.699375e+02
  4.627186e-01    1.720561e+02
  4.658345e-01    1.746377e+02
  4.689505e-01    1.760741e+02
  4.720664e-01    1.777128e+02
  4.751824e-01    1.790685e+02
  4.782983e-01    1.804213e+02
  4.814143e-01    1.824881e+02
  4.845302e-01    1.839122e+02
  4.876462e-01    1.857359e+02
  4.907621e-01    1.868278e+02
  4.938781e-01    1.881812e+02
  4.969940e-01    1.884626e+02
  5.001100e-01    1.880988e+02
  5.032259e-01    1.882536e+02
  5.063419e-01    1.887317e+02
  5.094578e-01    1.887809e+02
  5.125738e-01    1.882458e+02
  5.156897e-01    1.888274e+02
  5.188057e-01    1.892184e+02
  5.219216e-01    1.886224e+02
  5.250376e-01    1.878885e+02
  5.281535e-01    1.875224e+02
  5.312695e-01    1.884739e+02
  5.343854e-01    1.885913e+02
  5.375014e-01    1.899428e+02
  5.406173e-01    1.915493e+02
  5.437333e-01    1.924553e+02
  5.468492e-01    1.923552e+02
  5.499652e-01    1.922303e+02
  5.530811e-01    1.920219e+02
  5.561971e-01    1.917015e+02
  5.593130e-01    1.922251e+02
  5.624290e-01    1.918261e+02
  5.655449e-01    1.917490e+02
  5.686609e-01    1.910170e+02
  5.717768e-01    1.915523e+02
  5.748928e-01    1.915440e+02
  5.780087e-01    1.908388e+02
  5.811247e-01    1.900198e+02
  5.842406e-01    1.898646e+02
  5.873566e-01    1.904170e+02
  5.904725e-01    1.894617e+02
  5.935885e-01    1.882999e+02
  5.967044e-01    1.878412e+02
  5.998204e-01    1.884847e+02
  6.029363e-01    1.883371e+02
  6.060523e-01    1.882921e+02
  6.091682e-01    1.876264e+02
  6.122842e-01    1.879608e+02
  6.154001e-01    1.876760e+02
  6.185161e-01    1.876539e+02
  6.216320e-01    1.868741e+02
  6.247480e-01    1.865078e+02
  6.278639e-01    1.863816e+02
  6.309799e-01    1.871540e+02
  6.340958e-01    1.876133e+02
  6.372118e-01    1.876500e+02
  6.403277e-01    1.868734e+02
  6.434437e-01    1.866679e+02
  6.465596e-01    1.867175e+02
  6.496756e-01    1.864529e+02
  6.527915e-01    1.863539e+02
  6.559075e-01    1.871280e+02
  6.590234e-01    1.870299e+02
  6.621394e-01    1.858744e+02
  6.652553e-01    1.857430e+02
  6.683713e-01    1.862963e+02
  6.714872e-01    1.864018e+02
  6.746032e-01    1.868303e+02
  6.777191e-01    1.865527e+02
  6.808351e-01    1.862143e+02
  6.839510e-01    1.855427e+02
  6.870670e-01    1.850522e+02
  6.901829e-01    1.847047e+02
  6.932989e-01    1.855899e+02
  6.964148e-01    1.854999e+02
  6.995308e-01    1.854621e+02
  7.026467e-01    1.855685e+02
  7.057627e-01    1.855208e+02
  7.088786e-01    1.846180e+02
  7.119946e-01    1.838340e+02
  7.151105e-01    1.836331e+02
  7.182265e-01    1.837697e+02
  7.213424e-01    1.834712e+02
  7.244584e-01    1.827700e+02
  7.275743e-01    1.824190e+02
  7.306903e-01    1.822502e+02
  7.338062e-01    1.820623e+02
  7.369222e-01    1.816947e+02
  7.400381e-01    1.811665e+02
  7.431541e-01    1.809619e+02
  7.462700e-01    1.815691e+02
  7.493860e-01    1.816922e+02
  7.525019e-01    1.813627e+02
  7.556179e-01    1.807476e+02
  7.587338e-01    1.807608e+02
  7.618498e-01    1.802397e+02
  7.649657e-01    1.798460e+02
  7.680817e-01    1.791128e+02
  7.711976e-01    1.788318e+02
  7.743136e-01    1.783132e+02
  7.774295e-01    1.785095e+02
  7.805455e-01    1.782867e+02
  7.836614e-01    1.781133e+02
  7.867774e-01    1.778911e+02
  7.898933e-01    1.780149e+02
  7.930093e-01    1.774920e+02
  7.961252e-01    1.782161e+02
  7.992412e-01    1.777241e+02
  8.023571e-01    1.770028e+02
  8.054731e-01    1.761169e+02
  8.085890e-01    1.765833e+02
  8.117050e-01    1.761785e+02
  8.148209e-01    1.761702e+02
  8.179369e-01    1.752128e+02
  8.210528e-01    1.746582e+02
  8.241688e-01    1.740236e+02
  8.272847e-01    1.731761e+02
  8.304007e-01    1.730434e+02
  8.335166e-01    1.729589e+02
  8.366326e-01    1.728259e+02
  8.397485e-01    1.726426e+02
  8.428645e-01    1.723011e+02
  8.459804e-01    1.717620e+02
  8.490964e-01    1.715376e+02
  8.522123e-01    1.711276e+02
  8.553283e-01    1.705961e+02
  8.584442e-01    1.692839e+02
  8.615602e-01    1.688795e+02
  8.646761e-01    1.690998e+02
  8.677921e-01    1.693032e+02
  8.709080e-01    1.690456e+02
  8.740240e-01    1.690462e+02
  8.771399e-01    1.690124e+02
  8.802559e-01    1.687970e+02
  8.833718e-01    1.676732e+02
  8.864878e-01    1.665387e+02
  8.896037e-01    1.660920e+02
  8.927197e-01    1.660980e+02
  8.958356e-01    1.662150e+02
  8.989516e-01    1.660513e+02
  9.020675e-01    1.656098e+02
  9.051835e-01    1.654541e+02
  9.082994e-01    1.655872e+02
  9.114154e-01    1.658228e+02
  9.145313e-01    1.655429e+02
  9.176473e-01    1.650758e+02
  9.207632e-01    1.642384e+02
  9.238792e-01    1.642273e+02
  9.269951e-01    1.633546e+02
  9.301111e-01    1.629077e+02
  9.332270e-01    1.622475e+02
  9.363430e-01    1.625616e+02
  9.394589e-01    1.625214e+02
  9.425749e-01    1.623444e+02
  9.456908e-01    1.615094e+02
  9.488068e-01    1.611026e+02
  9.519227e-01    1.606864e+02
  9.550387e-01    1.603637e+02
  9.581546e-01    1.599005e+02
  9.612706e-01    1.599591e+02
  9.643865e-01    1.597677e+02
  9.675025e-01    1.588605e+02
  9.706184e-01    1.581573e+02
  9.737344e-01    1.577490e+02
  9.768503e-01    1.572390e+02
  9.799663e-01    1.567016e+02
  9.830822e-01    1.565630e+02
  9.861982e-01    1.567736e+02
  9.893141e-01    1.565810e+02
  9.924301e-01    1.561653e+02
  9.955460e-01    1.559068e+02
  9.986620e-01    1.553982e+02
  1.001778e+00    1.549442e+02
  1.004894e+00    1.543433e+02
  1.008010e+00    1.538504e+02
  1.011126e+00    1.539359e+02
  1.014242e+00    1.537230e+02
  1.017358e+00    1.529205e+02
  1.020474e+00    1.523282e+02
  1.023590e+00    1.519471e+02
  1.026706e+00    1.513447e+02
  1.029821e+00    1.514617e+02
  1.032937e+00    1.515917e+02
  1.036053e+00    1.510679e+02
  1.039169e+00    1.503224e+02
  1.042285e+00    1.501538e+02
  1.045401e+00    1.500729e+02
  1.048517e+00    1.501492e+02
  1.051633e+00    1.493414e+02
  1.054749e+00    1.483841e+02
  1.057865e+00    1.482910e+02
  1.060981e+00    1.480914e+02
  1.064097e+00    1.481774e+02
  1.067213e+00    1.481442e+02
  1.070329e+00    1.478665e+02
  1.073445e+00    1.473370e+02
  1.076561e+00    1.467120e+02
  1.079677e+00    1.464772e+02
  1.082793e+00    1.463081e+02
  1.085909e+00    1.462657e+02
  1.089025e+00    1.459509e+02
  1.092140e+00    1.455370e+02
  1.095256e+00    1.451205e+02
  1.098372e+00    1.446475e+02
  1.101488e+00    1.440604e+02
  1.104604e+00    1.445063e+02
  1.107720e+00    1.449820e+02
  1.110836e+00    1.440286e+02
  1.113952e+00    1.432678e+02
  1.117068e+00    1.428446e+02
  1.120184e+00    1.423942e+02
  1.123300e+00    1.421345e+02
  1.126416e+00    1.421951e+02
  1.129532e+00    1.420735e+02
  1.132648e+00    1.418027e+02
  1.135764e+00    1.415234e+02
  1.138880e+00    1.410343e+02
  1.141996e+00    1.408002e+02
  1.145112e+00    1.407622e+02
  1.148228e+00    1.405377e+02
  1.151344e+00    1.401503e+02
  1.154459e+00    1.396154e+02
  1.157575e+00    1.391869e+02
  1.160691e+00    1.391212e+02
  1.163807e+00    1.388826e+02
  1.166923e+00    1.384294e+02
  1.170039e+00    1.378482e+02
  1.173155e+00    1.377060e+02
  1.176271e+00    1.371576e+02
  1.179387e+00    1.372934e+02
  1.182503e+00    1.373283e+02
  1.185619e+00    1.374200e+02
  1.188735e+00    1.368506e+02
  1.191851e+00    1.368822e+02
  1.194967e+00    1.364346e+02
  1.198083e+00    1.359072e+02
  1.201199e+00    1.352664e+02
  1.204315e+00    1.349992e+02
  1.207431e+00    1.347620e+02
  1.210547e+00    1.345976e+02
  1.213663e+00    1.341886e+02
  1.216778e+00    1.341904e+02
  1.219894e+00    1.340313e+02
  1.223010e+00    1.339478e+02
  1.226126e+00    1.334506e+02
  1.229242e+00    1.332007e+02
  1.232358e+00    1.328759e+02
  1.235474e+00    1.329964e+02
  1.238590e+00    1.326922e+02
  1.241706e+00    1.330025e+02
  1.244822e+00    1.332752e+02
  1.247938e+00    1.326715e+02
  1.251054e+00    1.318891e+02
  1.254170e+00    1.315153e+02
  1.257286e+00    1.314759e+02
  1.260402e+00    1.311654e+02
  1.263518e+00    1.310110e+02
  1.266634e+00    1.306376e+02
  1.269750e+00    1.303600e+02
  1.272866e+00    1.298647e+02
  1.275982e+00    1.297482e+02
  1.279097e+00    1.295682e+02
  1.282213e+00    1.297955e+02
  1.285329e+00    1.298454e+02
  1.288445e+00    1.292580e+02
  1.291561e+00    1.287978e+02
  1.294677e+00    1.285645e+02
  1.297793e+00    1.282544e+02
  1.300909e+00    1.276439e+02
  1.304025e+00    1.276778e+02
  1.307141e+00    1.281215e+02
  1.310257e+00    1.273878e+02
  1.313373e+00    1.262774e+02
  1.316489e+00    1.261665e+02
  1.319605e+00    1.264952e+02
  1.322721e+00    1.263151e+02
  1.325837e+00    1.256033e+02
  1.328953e+00    1.251878e+02
  1.332069e+00    1.250090e+02
  1.335185e+00    1.248936e+02
  1.338301e+00    1.250148e+02
  1.341416e+00    1.251026e+02
  1.344532e+00    1.250632e+02
  1.347648e+00    1.252077e+02
  1.350764e+00    1.250019e+02
  1.353880e+00    1.245775e+02
  1.356996e+00    1.241689e+02
  1.360112e+00    1.241353e+02
  1.363228e+00    1.241190e+02
  1.366344e+00    1.240877e+02
  1.369460e+00    1.235182e+02
  1.372576e+00    1.229393e+02
  1.375692e+00    1.227576e+02
  1.378808e+00    1.227979e+02
  1.381924e+00    1.230353e+02
  1.385040e+00    1.229054e+02
  1.388156e+00    1.231814e+02
  1.391272e+00    1.225504e+02
  1.394388e+00    1.214850e+02
  1.397504e+00    1.211086e+02
  1.400619e+00    1.212057e+02
  1.403735e+00    1.217191e+02
  1.406851e+00    1.217634e+02
  1.409967e+00    1.214329e+02
  1.413083e+00    1.210697e+02
  1.416199e+00    1.210311e+02
  1.419315e+00    1.208550e+02
  1.422431e+00    1.206341e+02
  1.425547e+00    1.204260e+02
  1.428663e+00    1.201487e+02
  1.431779e+00    1.199453e+02
  1.434895e+00    1.195875e+02
  1.438011e+00    1.193488e+02
  1.441127e+00    1.188590e+02
  1.444243e+00    1.185806e+02
  1.447359e+00    1.184141e+02
  1.450475e+00    1.183886e+02
  1.453591e+00    1.182252e+02
  1.456707e+00    1.177759e+02
  1.459823e+00    1.175176e+02
  1.462938e+00    1.173559e+02
  1.466054e+00    1.170814e+02
  1.469170e+00    1.168872e+02
  1.472286e+00    1.172003e+02
  1.475402e+00    1.171248e+02
  1.478518e+00    1.168204e+02
  1.481634e+00    1.161668e+02
  1.484750e+00    1.159777e+02
  1.487866e+00    1.155874e+02
  1.490982e+00    1.160063e+02
  1.494098e+00    1.165745e+02
  1.497214e+00    1.168242e+02
  1.500330e+00    1.164276e+02
  1.503446e+00    1.156774e+02
  1.506562e+00    1.148126e+02
  1.509678e+00    1.143649e+02
  1.512794e+00    1.142544e+02
  1.515910e+00    1.138763e+02
  1.519026e+00    1.141323e+02
  1.522142e+00    1.144909e+02
  1.525257e+00    1.143931e+02
  1.528373e+00    1.140497e+02
  1.531489e+00    1.142097e+02
  1.534605e+00    1.142640e+02
  1.537721e+00    1.142697e+02
  1.540837e+00    1.138981e+02
  1.543953e+00    1.135519e+02
  1.547069e+00    1.136431e+02
  1.550185e+00    1.137022e+02
  1.553301e+00    1.135158e+02
  1.556417e+00    1.128464e+02
  1.559533e+00    1.129926e+02
  1.562649e+00    1.130759e+02
  1.565765e+00    1.130638e+02
  1.568881e+00    1.131278e+02
  1.571997e+00    1.137245e+02
  1.575113e+00    1.143772e+02
  1.578229e+00    1.156441e+02
  1.581345e+00    1.175655e+02
  1.584461e+00    1.202667e+02
  1.587576e+00    1.216359e+02
  1.590692e+00    1.213105e+02
  1.593808e+00    1.193288e+02
  1.596924e+00    1.166181e+02
  1.600040e+00    1.142121e+02
  1.603156e+00    1.127697e+02
  1.606272e+00    1.116637e+02
  1.609388e+00    1.111011e+02
  1.612504e+00    1.107856e+02
  1.615620e+00    1.103330e+02
  1.618736e+00    1.098484e+02
  1.621852e+00    1.092293e+02
  1.624968e+00    1.092009e+02
  1.628084e+00    1.092942e+02
  1.631200e+00    1.091139e+02
  1.634316e+00    1.090801e+02
  1.637432e+00    1.088223e+02
  1.640548e+00    1.090040e+02
  1.643664e+00    1.092444e+02
  1.646780e+00    1.092464e+02
  1.649895e+00    1.089235e+02
  1.653011e+00    1.088344e+02
  1.656127e+00    1.089325e+02
  1.659243e+00    1.086031e+02
  1.662359e+00    1.080720e+02
  1.665475e+00    1.076229e+02
  1.668591e+00    1.074792e+02
  1.671707e+00    1.074280e+02
  1.674823e+00    1.076375e+02
  1.677939e+00    1.075611e+02
  1.681055e+00    1.074690e+02
  1.684171e+00    1.076374e+02
  1.687287e+00    1.076154e+02
  1.690403e+00    1.069861e+02
  1.693519e+00    1.065550e+02
  1.696635e+00    1.066628e+02
  1.699751e+00    1.070156e+02
  1.702867e+00    1.068356e+02
  1.705983e+00    1.065817e+02
  1.709099e+00    1.067863e+02
  1.712214e+00    1.078917e+02
  1.715330e+00    1.094199e+02
  1.718446e+00    1.115046e+02
  1.721562e+00    1.136070e+02
  1.724678e+00    1.155838e+02
  1.727794e+00    1.167326e+02
  1.730910e+00    1.171831e+02
  1.734026e+00    1.160582e+02
  1.737142e+00    1.141231e+02
  1.740258e+00    1.117159e+02
  1.743374e+00    1.095287e+02
  1.746490e+00    1.075230e+02
  1.749606e+00    1.065968e+02
  1.752722e+00    1.058595e+02
  1.755838e+00    1.055147e+02
  1.758954e+00    1.052567e+02
  1.762070e+00    1.052524e+02
  1.765186e+00    1.053523e+02
  1.768302e+00    1.051585e+02
  1.771418e+00    1.051128e+02
  1.774533e+00    1.049203e+02
  1.777649e+00    1.051163e+02
  1.780765e+00    1.050730e+02
  1.783881e+00    1.050892e+02
  1.786997e+00    1.051070e+02
  1.790113e+00    1.060985e+02
  1.793229e+00    1.075413e+02
  1.796345e+00    1.111174e+02
  1.799461e+00    1.177558e+02
  1.802577e+00    1.277036e+02
  1.805693e+00    1.375273e+02
  1.808809e+00    1.446062e+02
  1.811925e+00    1.453584e+02
  1.815041e+00    1.394242e+02
  1.818157e+00    1.295263e+02
  1.821273e+00    1.191316e+02
  1.824389e+00    1.121242e+02
  1.827505e+00    1.081663e+02
  1.830621e+00    1.065466e+02
  1.833737e+00    1.057838e+02
  1.836852e+00    1.053339e+02
  1.839968e+00    1.049604e+02
  1.843084e+00    1.043319e+02
  1.846200e+00    1.037479e+02
  1.849316e+00    1.034801e+02
  1.852432e+00    1.027768e+02
  1.855548e+00    1.025090e+02
  1.858664e+00    1.021264e+02
  1.861780e+00    1.021487e+02
  1.864896e+00    1.023549e+02
  1.868012e+00    1.021547e+02
  1.871128e+00    1.019593e+02
  1.874244e+00    1.018381e+02
  1.877360e+00    1.016377e+02
  1.880476e+00    1.012913e+02
  1.883592e+00    1.011927e+02
  1.886708e+00    1.013106e+02
  1.889824e+00    1.013550e+02
  1.892940e+00    1.014037e+02
  1.896056e+00    1.012198e+02
  1.899171e+00    1.009873e+02
  1.902287e+00    1.006311e+02
  1.905403e+00    1.004852e+02
  1.908519e+00    1.000838e+02
  1.911635e+00    1.000079e+02
  1.914751e+00    1.002063e+02
  1.917867e+00    1.002031e+02
  1.920983e+00    1.000337e+02
  1.924099e+00    9.974934e+01
  1.927215e+00    9.990363e+01
  1.930331e+00    1.000226e+02
  1.933447e+00    9.998548e+01
  1.936563e+00    9.948634e+01
  1.939679e+00    9.883801e+01
  1.942795e+00    9.851115e+01
  1.945911e+00    9.861465e+01
  1.949027e+00    9.884978e+01
  1.952143e+00    9.893650e+01
  1.955259e+00    9.870410e+01
  1.958375e+00    9.868443e+01
  1.961490e+00    9.856111e+01
  1.964606e+00    9.841073e+01
  1.967722e+00    9.791103e+01
  1.970838e+00    9.791793e+01
  1.973954e+00    9.826228e+01
  1.977070e+00    9.885582e+01
  1.980186e+00    9.955725e+01
  1.983302e+00    1.005645e+02
  1.986418e+00    1.016585e+02
  1.989534e+00    1.022693e+02
  1.992650e+00    1.023478e+02
  1.995766e+00    1.014492e+02
  1.998882e+00    1.000182e+02
  2.001998e+00    9.861468e+01
  2.005114e+00    9.788174e+01
  2.008230e+00    9.767711e+01
  2.011346e+00    9.753349e+01
  2.014462e+00    9.738659e+01
  2.017578e+00    9.763956e+01
  2.020694e+00    9.829251e+01
  2.023809e+00    9.899584e+01
  2.026925e+00    9.933834e+01
  2.030041e+00    9.980860e+01
  2.033157e+00    1.009318e+02
  2.036273e+00    1.025996e+02
  2.039389e+00    1.040551e+02
  2.042505e+00    1.047389e+02
  2.045621e+00    1.047326e+02
  2.048737e+00    1.042394e+02
  2.051853e+00    1.033791e+02
  2.054969e+00    1.022951e+02
  2.058085e+00    1.010841e+02
  2.061201e+00    9.980466e+01
  2.064317e+00    9.856563e+01
  2.067433e+00    9.787494e+01
  2.070549e+00    9.753658e+01
  2.073665e+00    9.706158e+01
  2.076781e+00    9.677765e+01
  2.079897e+00    9.669028e+01
  2.083013e+00    9.653773e+01
  2.086128e+00    9.654940e+01
  2.089244e+00    9.641613e+01
  2.092360e+00    9.641155e+01
  2.095476e+00    9.613821e+01
  2.098592e+00    9.553607e+01
  2.101708e+00    9.497741e+01
  2.104824e+00    9.495724e+01
  2.107940e+00    9.517860e+01
  2.111056e+00    9.553959e+01
  2.114172e+00    9.564495e+01
  2.117288e+00    9.549291e+01
  2.120404e+00    9.539826e+01
  2.123520e+00    9.531870e+01
  2.126636e+00    9.542303e+01
  2.129752e+00    9.502362e+01
  2.132868e+00    9.472105e+01
  2.135984e+00    9.446949e+01
  2.139100e+00    9.456031e+01
  2.142216e+00    9.466988e+01
  2.145332e+00    9.492417e+01
  2.148447e+00    9.510869e+01
  2.151563e+00    9.503789e+01
  2.154679e+00    9.480503e+01
  2.157795e+00    9.453740e+01
  2.160911e+00    9.414491e+01
  2.164027e+00    9.400539e+01
  2.167143e+00    9.406310e+01
  2.170259e+00    9.416030e+01
  2.173375e+00    9.451051e+01
  2.176491e+00    9.480302e+01
  2.179607e+00    9.494421e+01
  2.182723e+00    9.509862e+01
  2.185839e+00    9.464392e+01
  2.188955e+00    9.436697e+01
  2.192071e+00    9.394975e+01
  2.195187e+00    9.375793e+01
  2.198303e+00    9.371748e+01
  2.201419e+00    9.387431e+01
  2.204535e+00    9.407115e+01
  2.207651e+00    9.408495e+01
  2.210766e+00    9.394778e+01
  2.213882e+00    9.371732e+01
  2.216998e+00    9.373278e+01
  2.220114e+00    9.401971e+01
  2.223230e+00    9.449424e+01
  2.226346e+00    9.497257e+01
  2.229462e+00    9.540914e+01
  2.232578e+00    9.573643e+01
  2.235694e+00    9.596318e+01
  2.238810e+00    9.610609e+01
  2.241926e+00    9.590799e+01
  2.245042e+00    9.559599e+01
  2.248158e+00    9.541853e+01
  2.251274e+00    9.509909e+01
  2.254390e+00    9.469775e+01
  2.257506e+00    9.434127e+01
  2.260622e+00    9.427288e+01
  2.263738e+00    9.410025e+01
  2.266854e+00    9.360156e+01
  2.269970e+00    9.327814e+01
  2.273085e+00    9.321602e+01
  2.276201e+00    9.321948e+01
  2.279317e+00    9.304742e+01
  2.282433e+00    9.289481e+01
  2.285549e+00    9.295504e+01
  2.288665e+00    9.299966e+01
  2.291781e+00    9.336613e+01
  2.294897e+00    9.372431e+01
  2.298013e+00    9.393456e+01
  2.301129e+00    9.372497e+01
  2.304245e+00    9.350391e+01
  2.307361e+00    9.315321e+01
  2.310477e+00    9.268461e+01
  2.313593e+00    9.221540e+01
  2.316709e+00    9.231674e+01
  2.319825e+00    9.242937e+01
  2.322941e+00    9.236469e+01
  2.326057e+00    9.200758e+01
  2.329173e+00    9.206933e+01
  2.332289e+00    9.251106e+01
  2.335404e+00    9.289653e+01
  2.338520e+00    9.328327e+01
  2.341636e+00    9.418244e+01
  2.344752e+00    9.578125e+01
  2.347868e+00    9.702370e+01
  2.350984e+00    9.733516e+01
  2.354100e+00    9.769151e+01
  2.357216e+00    9.726939e+01
  2.360332e+00    9.598341e+01
  2.363448e+00    9.410043e+01
  2.366564e+00    9.282971e+01
  2.369680e+00    9.223871e+01
  2.372796e+00    9.191710e+01
  2.375912e+00    9.154361e+01
  2.379028e+00    9.165119e+01
  2.382144e+00    9.174653e+01
  2.385260e+00    9.190260e+01
  2.388376e+00    9.178478e+01
  2.391492e+00    9.188977e+01
  2.394608e+00    9.198110e+01
  2.397723e+00    9.211640e+01
  2.400839e+00    9.262032e+01
  2.403955e+00    9.302959e+01
  2.407071e+00    9.326856e+01
  2.410187e+00    9.360105e+01
  2.413303e+00    9.404650e+01
  2.416419e+00    9.470913e+01
  2.419535e+00    9.474882e+01
  2.422651e+00    9.410738e+01
  2.425767e+00    9.349380e+01
  2.428883e+00    9.354488e+01
  2.431999e+00    9.310921e+01
  2.435115e+00    9.258899e+01
  2.438231e+00    9.202868e+01
  2.441347e+00    9.181297e+01
  2.444463e+00    9.178979e+01
  2.447579e+00    9.173260e+01
  2.450695e+00    9.184826e+01
  2.453811e+00    9.173387e+01
  2.456927e+00    9.158280e+01
  2.460042e+00    9.130231e+01
  2.463158e+00    9.162350e+01
  2.466274e+00    9.165552e+01
  2.469390e+00    9.145214e+01
  2.472506e+00    9.164334e+01
  2.475622e+00    9.175159e+01
  2.478738e+00    9.165739e+01
  2.481854e+00    9.166303e+01
  2.484970e+00    9.162843e+01
  2.488086e+00    9.133107e+01
  2.491202e+00    9.099304e+01
  2.494318e+00    9.127910e+01
  2.497434e+00    9.168671e+01
  2.500550e+00    9.155150e+01
  2.503666e+00    9.163754e+01
  2.506782e+00    9.177733e+01
  2.509898e+00    9.175737e+01
  2.513014e+00    9.154790e+01
  2.516130e+00    9.157848e+01
  2.519246e+00    9.148140e+01
  2.522361e+00    9.119567e+01
  2.525477e+00    9.114198e+01
  2.528593e+00    9.111357e+01
  2.531709e+00    9.141644e+01
  2.534825e+00    9.144404e+01
  2.537941e+00    9.145226e+01
  2.541057e+00    9.152380e+01
  2.544173e+00    9.152543e+01
  2.547289e+00    9.168144e+01
  2.550405e+00    9.151196e+01
  2.553521e+00    9.142239e+01
  2.556637e+00    9.134266e+01
  2.559753e+00    9.158092e+01
  2.562869e+00    9.150906e+01
  2.565985e+00    9.184684e+01
  2.569101e+00    9.186976e+01
  2.572217e+00    9.188811e+01
  2.575333e+00    9.193153e+01
  2.578449e+00    9.206464e+01
  2.581565e+00    9.201682e+01
  2.584680e+00    9.223308e+01
  2.587796e+00    9.256075e+01
  2.590912e+00    9.337228e+01
  2.594028e+00    9.388033e+01
  2.597144e+00    9.414292e+01
  2.600260e+00    9.405605e+01
  2.603376e+00    9.358688e+01
  2.606492e+00    9.300740e+01
  2.609608e+00    9.277744e+01
  2.612724e+00    9.249448e+01
  2.615840e+00    9.216903e+01
  2.618956e+00    9.192222e+01
  2.622072e+00    9.162319e+01
  2.625188e+00    9.178893e+01
  2.628304e+00    9.199013e+01
  2.631420e+00    9.216244e+01
  2.634536e+00    9.236719e+01
  2.637652e+00    9.222909e+01
  2.640768e+00    9.216205e+01
  2.643884e+00    9.245581e+01
  2.646999e+00    9.272202e+01
  2.650115e+00    9.271659e+01
  2.653231e+00    9.285442e+01
  2.656347e+00    9.317749e+01
  2.659463e+00    9.342822e+01
  2.662579e+00    9.321629e+01
  2.665695e+00    9.309187e+01
  2.668811e+00    9.275149e+01
  2.671927e+00    9.244720e+01
  2.675043e+00    9.241731e+01
  2.678159e+00    9.287444e+01
  2.681275e+00    9.273778e+01
  2.684391e+00    9.304478e+01
  2.687507e+00    9.320896e+01
  2.690623e+00    9.336633e+01
  2.693739e+00    9.347899e+01
  2.696855e+00    9.362552e+01
  2.699971e+00    9.374918e+01
  2.703087e+00    9.394608e+01
  2.706203e+00    9.406167e+01
  2.709318e+00    9.408955e+01
  2.712434e+00    9.412195e+01
  2.715550e+00    9.412563e+01
  2.718666e+00    9.470831e+01
  2.721782e+00    9.500952e+01
  2.724898e+00    9.519370e+01
  2.728014e+00    9.508128e+01
  2.731130e+00    9.542226e+01
  2.734246e+00    9.548138e+01
  2.737362e+00    9.634945e+01
  2.740478e+00    9.778456e+01
  2.743594e+00    9.931013e+01
  2.746710e+00    1.006297e+02
  2.749826e+00    1.015484e+02
  2.752942e+00    1.020296e+02
  2.756058e+00    1.016245e+02
  2.759174e+00    1.005686e+02
  2.762290e+00    9.915699e+01
  2.765406e+00    9.774982e+01
  2.768522e+00    9.685205e+01
  2.771637e+00    9.658134e+01
  2.774753e+00    9.655177e+01
  2.777869e+00    9.666410e+01
  2.780985e+00    9.675549e+01
  2.784101e+00    9.660980e+01
  2.787217e+00    9.630318e+01
  2.790333e+00    9.649521e+01
  2.793449e+00    9.681866e+01
  2.796565e+00    9.701678e+01
  2.799681e+00    9.674740e+01
  2.802797e+00    9.673500e+01
  2.805913e+00    9.725599e+01
  2.809029e+00    9.814157e+01
  2.812145e+00    9.854980e+01
  2.815261e+00    9.898323e+01
  2.818377e+00    9.906743e+01
  2.821493e+00    9.884734e+01
  2.824609e+00    9.838370e+01
  2.827725e+00    9.825005e+01
  2.830841e+00    9.813358e+01
  2.833956e+00    9.798882e+01
  2.837072e+00    9.811473e+01
  2.840188e+00    9.832388e+01
  2.843304e+00    9.871870e+01
  2.846420e+00    9.911243e+01
  2.849536e+00    9.924188e+01
  2.852652e+00    9.919321e+01
  2.855768e+00    9.918903e+01
  2.858884e+00    9.940138e+01
  2.862000e+00    9.941254e+01
  2.865116e+00    9.975091e+01
  2.868232e+00    1.000894e+02
  2.871348e+00    1.004811e+02
  2.874464e+00    1.004116e+02
  2.877580e+00    1.006055e+02
  2.880696e+00    1.009532e+02
  2.883812e+00    1.016371e+02
  2.886928e+00    1.019951e+02
  2.890044e+00    1.026076e+02
  2.893160e+00    1.030667e+02
  2.896275e+00    1.032413e+02
  2.899391e+00    1.032381e+02
  2.902507e+00    1.034446e+02
  2.905623e+00    1.035887e+02
  2.908739e+00    1.033751e+02
  2.911855e+00    1.029899e+02
  2.914971e+00    1.031512e+02
  2.918087e+00    1.031771e+02
  2.921203e+00    1.031015e+02
  2.924319e+00    1.031160e+02
  2.927435e+00    1.033905e+02
  2.930551e+00    1.037297e+02
  2.933667e+00    1.042065e+02
  2.936783e+00    1.046311e+02
  2.939899e+00    1.051676e+02
  2.943015e+00    1.053299e+02
  2.946131e+00    1.054259e+02
  2.949247e+00    1.052749e+02
  2.952363e+00    1.055059e+02
  2.955479e+00    1.057987e+02
  2.958594e+00    1.062990e+02
  2.961710e+00    1.064574e+02
  2.964826e+00    1.066064e+02
  2.967942e+00    1.071218e+02
  2.971058e+00    1.073253e+02
  2.974174e+00    1.077753e+02
  2.977290e+00    1.082243e+02
  2.980406e+00    1.083575e+02
  2.983522e+00    1.082049e+02
  2.986638e+00    1.085192e+02
  2.989754e+00    1.091246e+02
  2.992870e+00    1.095122e+02
  2.995986e+00    1.097417e+02
  2.999102e+00    1.101412e+02
  3.002218e+00    1.105054e+02
  3.005334e+00    1.112173e+02
  3.008450e+00    1.115113e+02
  3.011566e+00    1.117002e+02
  3.014682e+00    1.118736e+02
  3.017798e+00    1.124740e+02
  3.020913e+00    1.130997e+02
  3.024029e+00    1.137381e+02
  3.027145e+00    1.143437e+02
  3.030261e+00    1.151498e+02
  3.033377e+00    1.159889e+02
  3.036493e+00    1.171870e+02
  3.039609e+00    1.186510e+02
  3.042725e+00    1.201554e+02
  3.045841e+00    1.217028e+02
  3.048957e+00    1.224540e+02
  3.052073e+00    1.231288e+02
  3.055189e+00    1.231489e+02
  3.058305e+00    1.226293e+02
  3.061421e+00    1.219597e+02
  3.064537e+00    1.215049e+02
  3.067653e+00    1.215494e+02
  3.070769e+00    1.221497e+02
  3.073885e+00    1.229393e+02
  3.077001e+00    1.238379e+02
  3.080117e+00    1.245544e+02
  3.083232e+00    1.254866e+02
  3.086348e+00    1.265671e+02
  3.089464e+00    1.276528e+02
  3.092580e+00    1.290093e+02
  3.095696e+00    1.302589e+02
  3.098812e+00    1.315203e+02
  3.101928e+00    1.327193e+02
  3.105044e+00    1.341553e+02
  3.108160e+00    1.358241e+02
  3.111276e+00    1.375119e+02
  3.114392e+00    1.392253e+02
  3.117508e+00    1.411477e+02
  3.120624e+00    1.432466e+02
  3.123740e+00    1.456875e+02
  3.126856e+00    1.483885e+02
  3.129972e+00    1.515227e+02
  3.133088e+00    1.550217e+02
  3.136204e+00    1.594520e+02
  3.139320e+00    1.651771e+02
  3.142436e+00    1.725838e+02
  3.145551e+00    1.831379e+02
  3.148667e+00    1.990644e+02
  3.151783e+00    2.259664e+02
  3.154899e+00    2.752113e+02
  3.158015e+00    3.741037e+02
  3.161131e+00    5.751179e+02
  3.164247e+00    9.711428e+02
  3.167363e+00    1.640623e+03
  3.170479e+00    2.568162e+03
  3.173595e+00    3.533943e+03
  3.176711e+00    4.209430e+03
  3.179827e+00    4.344526e+03
  3.182943e+00    3.888360e+03
  3.186059e+00    3.035594e+03
  3.189175e+00    2.101499e+03
  3.192291e+00    1.310265e+03
  3.195407e+00    7.853679e+02
  3.198523e+00    4.893486e+02
  3.201639e+00    3.395377e+02
  3.204755e+00    2.662724e+02
  3.207870e+00    2.285357e+02
  3.210986e+00    2.072732e+02
  3.214102e+00    1.942520e+02
  3.217218e+00    1.858050e+02
  3.220334e+00    1.797369e+02
  3.223450e+00    1.750801e+02
  3.226566e+00    1.712677e+02
  3.229682e+00    1.683407e+02
  3.232798e+00    1.662803e+02
  3.235914e+00    1.643034e+02
  3.239030e+00    1.628125e+02
  3.242146e+00    1.624667e+02
  3.245262e+00    1.629787e+02
  3.248378e+00    1.631128e+02
  3.251494e+00    1.626961e+02
  3.254610e+00    1.618685e+02
  3.257726e+00    1.607649e+02
  3.260842e+00    1.590266e+02
  3.263958e+00    1.572012e+02
  3.267074e+00    1.557718e+02
  3.270189e+00    1.546590e+02
  3.273305e+00    1.541570e+02
  3.276421e+00    1.540882e+02
  3.279537e+00    1.545624e+02
  3.282653e+00    1.551062e+02
  3.285769e+00    1.559422e+02
  3.288885e+00    1.572749e+02
  3.292001e+00    1.587005e+02
  3.295117e+00    1.594030e+02
  3.298233e+00    1.594200e+02
  3.301349e+00    1.591326e+02
  3.304465e+00    1.584289e+02
  3.307581e+00    1.572973e+02
  3.310697e+00    1.562913e+02
  3.313813e+00    1.556104e+02
  3.316929e+00    1.552877e+02
  3.320045e+00    1.553040e+02
  3.323161e+00    1.556590e+02
  3.326277e+00    1.562919e+02
  3.329393e+00    1.568706e+02
  3.332508e+00    1.573983e+02
  3.335624e+00    1.581628e+02
  3.338740e+00    1.590306e+02
  3.341856e+00    1.599774e+02
  3.344972e+00    1.609598e+02
  3.348088e+00    1.620742e+02
  3.351204e+00    1.633849e+02
  3.354320e+00    1.648323e+02
  3.357436e+00    1.661421e+02
  3.360552e+00    1.675063e+02
  3.363668e+00    1.693198e+02
  3.366784e+00    1.709252e+02
  3.369900e+00    1.722806e+02
  3.373016e+00    1.734573e+02
  3.376132e+00    1.747766e+02
  3.379248e+00    1.763307e+02
  3.382364e+00    1.781029e+02
  3.385480e+00    1.798524e+02
  3.388596e+00    1.817021e+02
  3.391712e+00    1.838077e+02
  3.394827e+00    1.865142e+02
  3.397943e+00    1.891700e+02
  3.401059e+00    1.922466e+02
  3.404175e+00    1.956428e+02
  3.407291e+00    1.994744e+02
  3.410407e+00    2.041676e+02
  3.413523e+00    2.093558e+02
  3.416639e+00    2.150414e+02
  3.419755e+00    2.227809e+02
  3.422871e+00    2.342123e+02
  3.425987e+00    2.534602e+02
  3.429103e+00    2.896238e+02
  3.432219e+00    3.686277e+02
  3.435335e+00    5.453423e+02
  3.438451e+00    9.093617e+02
  3.441567e+00    1.518867e+03
  3.444683e+00    2.310484e+03
  3.447799e+00    3.000142e+03
  3.450915e+00    3.291930e+03
  3.454031e+00    3.198527e+03
  3.457146e+00    2.968831e+03
  3.460262e+00    2.934504e+03
  3.463378e+00    3.179822e+03
  3.466494e+00    3.574722e+03
  3.469610e+00    3.755310e+03
  3.472726e+00    3.522756e+03
  3.475842e+00    2.892522e+03
  3.478958e+00    2.112575e+03
  3.482074e+00    1.399051e+03
  3.485190e+00    8.811935e+02
  3.488306e+00    5.656508e+02
  3.491422e+00    4.025341e+02
  3.494538e+00    3.227840e+02
  3.497654e+00    2.845943e+02
  3.500770e+00    2.645517e+02
  3.503886e+00    2.530555e+02
  3.507002e+00    2.459990e+02
  3.510118e+00    2.414983e+02
  3.513234e+00    2.386547e+02
  3.516350e+00    2.370747e+02
  3.519465e+00    2.365164e+02
  3.522581e+00    2.365026e+02
  3.525697e+00    2.372529e+02
  3.528813e+00    2.390863e+02
  3.531929e+00    2.420460e+02
  3.535045e+00    2.455764e+02
  3.538161e+00    2.495058e+02
  3.541277e+00    2.541462e+02
  3.544393e+00    2.588238e+02
  3.547509e+00    2.638501e+02
  3.550625e+00    2.690345e+02
  3.553741e+00    2.749319e+02
  3.556857e+00    2.812115e+02
  3.559973e+00    2.885879e+02
  3.563089e+00    2.972198e+02
  3.566205e+00    3.072977e+02
  3.569321e+00    3.192302e+02
  3.572437e+00    3.326639e+02
  3.575553e+00    3.484989e+02
  3.578669e+00    3.683156e+02
  3.581784e+00    3.946622e+02
  3.584900e+00    4.293835e+02
  3.588016e+00    4.763900e+02
  3.591132e+00    5.434325e+02
  3.594248e+00    6.545685e+02
  3.597364e+00    8.605176e+02
  3.600480e+00    1.276617e+03
  3.603596e+00    2.119200e+03
  3.606712e+00    3.751988e+03
  3.609828e+00    6.470499e+03
  3.612944e+00    1.015866e+04
  3.616060e+00    1.396641e+04
  3.619176e+00    1.667182e+04
  3.622292e+00    1.732289e+04
  3.625408e+00    1.580005e+04
  3.628524e+00    1.273695e+04
  3.631640e+00    9.092274e+03
  3.634756e+00    5.806044e+03
  3.637872e+00    3.403747e+03
  3.640988e+00    1.937259e+03
  3.644103e+00    1.165828e+03
  3.647219e+00    7.781577e+02
  3.650335e+00    5.836306e+02
  3.653451e+00    4.771708e+02
  3.656567e+00    4.142701e+02
  3.659683e+00    3.727546e+02
  3.662799e+00    3.433158e+02
  3.665915e+00    3.206308e+02
  3.669031e+00    3.028171e+02
  3.672147e+00    2.879674e+02
  3.675263e+00    2.755531e+02
  3.678379e+00    2.644950e+02
  3.681495e+00    2.552514e+02
  3.684611e+00    2.466328e+02
  3.687727e+00    2.387507e+02
  3.690843e+00    2.314938e+02
  3.693959e+00    2.248611e+02
  3.697075e+00    2.187011e+02
  3.700191e+00    2.131569e+02
  3.703307e+00    2.078846e+02
  3.706422e+00    2.027485e+02
  3.709538e+00    1.981734e+02
  3.712654e+00    1.943045e+02
  3.715770e+00    1.906000e+02
  3.718886e+00    1.870951e+02
  3.722002e+00    1.837473e+02
  3.725118e+00    1.806000e+02
  3.728234e+00    1.777428e+02
  3.731350e+00    1.750025e+02
  3.734466e+00    1.727729e+02
  3.737582e+00    1.705472e+02
  3.740698e+00    1.688386e+02
  3.743814e+00    1.674815e+02
  3.746930e+00    1.664996e+02
  3.750046e+00    1.656686e+02
  3.753162e+00    1.652410e+02
  3.756278e+00    1.651494e+02
  3.759394e+00    1.655539e+02
  3.762510e+00    1.665168e+02
  3.765626e+00    1.679292e+02
  3.768741e+00    1.693062e+02
  3.771857e+00    1.694109e+02
  3.774973e+00    1.680740e+02
  3.778089e+00    1.658289e+02
  3.781205e+00    1.629463e+02
  3.784321e+00    1.595785e+02
  3.787437e+00    1.563340e+02
  3.790553e+00    1.538011e+02
  3.793669e+00    1.520651e+02
  3.796785e+00    1.507914e+02
  3.799901e+00    1.497099e+02
  3.803017e+00    1.493690e+02
  3.806133e+00    1.493226e+02
  3.809249e+00    1.501180e+02
  3.812365e+00    1.508430e+02
  3.815481e+00    1.516211e+02
  3.818597e+00    1.524199e+02
  3.821713e+00    1.527461e+02
  3.824829e+00    1.522768e+02
  3.827945e+00    1.513012e+02
  3.831060e+00    1.500744e+02
  3.834176e+00    1.484180e+02
  3.837292e+00    1.469139e+02
  3.840408e+00    1.453300e+02
  3.843524e+00    1.436763e+02
  3.846640e+00    1.418963e+02
  3.849756e+00    1.403947e+02
  3.852872e+00    1.395337e+02
  3.855988e+00    1.386404e+02
  3.859104e+00    1.377664e+02
  3.862220e+00    1.374843e+02
  3.865336e+00    1.375515e+02
  3.868452e+00    1.380732e+02
  3.871568e+00    1.389598e+02
  3.874684e+00    1.399326e+02
  3.877800e+00    1.408398e+02
  3.880916e+00    1.417688e+02
  3.884032e+00    1.421868e+02
  3.887148e+00    1.419865e+02
  3.890264e+00    1.407791e+02
  3.893379e+00    1.392918e+02
  3.896495e+00    1.377667e+02
  3.899611e+00    1.362102e+02
  3.902727e+00    1.347471e+02
  3.905843e+00    1.337855e+02
  3.908959e+00    1.331175e+02
  3.912075e+00    1.324370e+02
  3.915191e+00    1.319019e+02
  3.918307e+00    1.318041e+02
  3.921423e+00    1.320274e+02
  3.924539e+00    1.322430e+02
  3.927655e+00    1.323900e+02
  3.930771e+00    1.329425e+02
  3.933887e+00    1.338366e+02
  3.937003e+00    1.347729e+02
  3.940119e+00    1.358656e+02
  3.943235e+00    1.375582e+02
  3.946351e+00    1.398878e+02
  3.949467e+00    1.433277e+02
  3.952583e+00    1.482124e+02
  3.955698e+00    1.564355e+02
  3.958814e+00    1.707141e+02
  3.961930e+00    1.986858e+02
  3.965046e+00    2.560325e+02
  3.968162e+00    3.748167e+02
  3.971278e+00    5.974496e+02
  3.974394e+00    9.585250e+02
  3.977510e+00    1.428792e+03
  3.980626e+00    1.853429e+03
  3.983742e+00    2.032993e+03
  3.986858e+00    1.842087e+03
  3.989974e+00    1.428280e+03
  3.993090e+00    9.511290e+02
  3.996206e+00    5.820362e+02
  3.999322e+00    3.578590e+02
  4.002438e+00    2.450492e+02
  4.005554e+00    1.933304e+02
  4.008670e+00    1.679150e+02
  4.011786e+00    1.541303e+02
  4.014902e+00    1.454888e+02
  4.018017e+00    1.395415e+02
  4.021133e+00    1.352586e+02
  4.024249e+00    1.321371e+02
  4.027365e+00    1.296988e+02
  4.030481e+00    1.275519e+02
  4.033597e+00    1.255523e+02
  4.036713e+00    1.238135e+02
  4.039829e+00    1.223771e+02
  4.042945e+00    1.213485e+02
  4.046061e+00    1.202073e+02
  4.049177e+00    1.190990e+02
  4.052293e+00    1.183530e+02
  4.055409e+00    1.175407e+02
  4.058525e+00    1.167341e+02
  4.061641e+00    1.160098e+02
  4.064757e+00    1.151402e+02
  4.067873e+00    1.143656e+02
  4.070989e+00    1.137874e+02
  4.074105e+00    1.136031e+02
  4.077221e+00    1.132450e+02
  4.080336e+00    1.130614e+02
  4.083452e+00    1.129570e+02
  4.086568e+00    1.127964e+02
  4.089684e+00    1.124903e+02
  4.092800e+00    1.121449e+02
  4.095916e+00    1.118625e+02
  4.099032e+00    1.115089e+02
  4.102148e+00    1.110501e+02
  4.105264e+00    1.106956e+02
  4.108380e+00    1.100194e+02
  4.111496e+00    1.091813e+02
  4.114612e+00    1.081775e+02
  4.117728e+00    1.072174e+02
  4.120844e+00    1.068384e+02
  4.123960e+00    1.064557e+02
  4.127076e+00    1.060258e+02
  4.130192e+00    1.056049e+02
  4.133308e+00    1.053916e+02
  4.136424e+00    1.050880e+02
  4.139540e+00    1.047453e+02
  4.142655e+00    1.045239e+02
  4.145771e+00    1.042117e+02
  4.148887e+00    1.038529e+02
  4.152003e+00    1.036217e+02
  4.155119e+00    1.034789e+02
  4.158235e+00    1.034112e+02
  4.161351e+00    1.033845e+02
  4.164467e+00    1.032385e+02
  4.167583e+00    1.030882e+02
  4.170699e+00    1.028887e+02
  4.173815e+00    1.028914e+02
  4.176931e+00    1.028842e+02
  4.180047e+00    1.029056e+02
  4.183163e+00    1.029389e+02
  4.186279e+00    1.029087e+02
  4.189395e+00    1.029378e+02
  4.192511e+00    1.029847e+02
  4.195627e+00    1.029934e+02
  4.198743e+00    1.028685e+02
  4.201858e+00    1.027922e+02
  4.204974e+00    1.024749e+02
  4.208090e+00    1.019911e+02
  4.211206e+00    1.013022e+02
  4.214322e+00    1.006579e+02
  4.217438e+00    1.001153e+02
  4.220554e+00    1.000257e+02
  4.223670e+00    9.995702e+01
  4.226786e+00    9.988607e+01
  4.229902e+00    1.000007e+02
  4.233018e+00    1.002532e+02
  4.236134e+00    1.004202e+02
  4.239250e+00    1.004087e+02
  4.242366e+00    1.003658e+02
  4.245482e+00    1.003445e+02
  4.248598e+00    9.981225e+01
  4.251714e+00    9.955239e+01
  4.254830e+00    9.925106e+01
  4.257946e+00    9.889850e+01
  4.261062e+00    9.836684e+01
  4.264177e+00    9.835096e+01
  4.267293e+00    9.850156e+01
  4.270409e+00    9.849826e+01
  4.273525e+00    9.815435e+01
  4.276641e+00    9.738479e+01
  4.279757e+00    9.742767e+01
  4.282873e+00    9.834889e+01
  4.285989e+00    9.894405e+01
  4.289105e+00    9.921778e+01
  4.292221e+00    9.930038e+01
  4.295337e+00    9.947273e+01
  4.298453e+00    9.950194e+01
  4.301569e+00    9.901865e+01
  4.304685e+00    9.821070e+01
  4.307801e+00    9.762689e+01
  4.310917e+00    9.753281e+01
  4.314033e+00    9.746497e+01
  4.317149e+00    9.701907e+01
  4.320265e+00    9.666783e+01
  4.323381e+00    9.671851e+01
  4.326496e+00    9.725064e+01
  4.329612e+00    9.718777e+01
  4.332728e+00    9.696543e+01
  4.335844e+00    9.671593e+01
  4.338960e+00    9.677835e+01
  4.342076e+00    9.681757e+01
  4.345192e+00    9.667387e+01
  4.348308e+00    9.662920e+01
  4.351424e+00    9.682348e+01
  4.354540e+00    9.687064e+01
  4.357656e+00    9.653233e+01
  4.360772e+00    9.651028e+01
  4.363888e+00    9.651770e+01
  4.367004e+00    9.646696e+01
  4.370120e+00    9.656059e+01
  4.373236e+00    9.679937e+01
  4.376352e+00    9.709698e+01
  4.379468e+00    9.738776e+01
  4.382584e+00    9.757393e+01
  4.385700e+00    9.769500e+01
  4.388815e+00    9.820413e+01
  4.391931e+00    9.850330e+01
  4.395047e+00    9.849823e+01
  4.398163e+00    9.840050e+01
  4.401279e+00    9.837772e+01
  4.404395e+00    9.827152e+01
  4.407511e+00    9.806470e+01
  4.410627e+00    9.808841e+01
  4.413743e+00    9.811891e+01
  4.416859e+00    9.789158e+01
  4.419975e+00    9.784396e+01
  4.423091e+00    9.794614e+01
  4.426207e+00    9.804633e+01
  4.429323e+00    9.798994e+01
  4.432439e+00    9.772955e+01
  4.435555e+00    9.756551e+01
  4.438671e+00    9.706448e+01
  4.441787e+00    9.663550e+01
  4.444903e+00    9.641134e+01
  4.448019e+00    9.648928e+01
  4.451134e+00    9.663553e+01
  4.454250e+00    9.662696e+01
  4.457366e+00    9.645083e+01
  4.460482e+00    9.626638e+01
  4.463598e+00    9.616352e+01
  4.466714e+00    9.599174e+01
  4.469830e+00    9.585467e+01
  4.472946e+00    9.592476e+01
  4.476062e+00    9.638380e+01
  4.479178e+00    9.644556e+01
  4.482294e+00    9.636848e+01
  4.485410e+00    9.619823e+01
  4.488526e+00    9.625676e+01
  4.491642e+00    9.636260e+01
  4.494758e+00    9.633902e+01
  4.497874e+00    9.631812e+01
  4.500990e+00    9.631601e+01
  4.504106e+00    9.634666e+01
  4.507222e+00    9.637372e+01
  4.510338e+00    9.646483e+01
  4.513453e+00    9.656387e+01
  4.516569e+00    9.670000e+01
  4.519685e+00    9.678246e+01
  4.522801e+00    9.692735e+01
  4.525917e+00    9.731978e+01
  4.529033e+00    9.757742e+01
  4.532149e+00    9.777551e+01
  4.535265e+00    9.793558e+01
  4.538381e+00    9.811298e+01
  4.541497e+00    9.860797e+01
  4.544613e+00    9.928197e+01
  4.547729e+00    1.000225e+02
  4.550845e+00    1.003609e+02
  4.553961e+00    1.011020e+02
  4.557077e+00    1.016300e+02
  4.560193e+00    1.021052e+02
  4.563309e+00    1.029343e+02
  4.566425e+00    1.046499e+02
  4.569541e+00    1.070940e+02
  4.572657e+00    1.109954e+02
  4.575772e+00    1.165844e+02
  4.578888e+00    1.266890e+02
  4.582004e+00    1.438329e+02
  4.585120e+00    1.731189e+02
  4.588236e+00    2.154320e+02
  4.591352e+00    2.705359e+02
  4.594468e+00    3.213885e+02
  4.597584e+00    3.529133e+02
  4.600700e+00    3.524781e+02
  4.603816e+00    3.187591e+02
  4.606932e+00    2.675235e+02
  4.610048e+00    2.125530e+02
  4.613164e+00    1.703038e+02
  4.616280e+00    1.420579e+02
  4.619396e+00    1.272786e+02
  4.622512e+00    1.194511e+02
  4.625628e+00    1.157277e+02
  4.628744e+00    1.138633e+02
  4.631860e+00    1.130059e+02
  4.634976e+00    1.128808e+02
  4.638091e+00    1.133099e+02
  4.641207e+00    1.140387e+02
  4.644323e+00    1.147922e+02
  4.647439e+00    1.155214e+02
  4.650555e+00    1.166659e+02
  4.653671e+00    1.180427e+02
  4.656787e+00    1.197745e+02
  4.659903e+00    1.217628e+02
  4.663019e+00    1.240712e+02
  4.666135e+00    1.269536e+02
  4.669251e+00    1.309959e+02
  4.672367e+00    1.370905e+02
  4.675483e+00    1.466229e+02
  4.678599e+00    1.625499e+02
  4.681715e+00    1.925064e+02
  4.684831e+00    2.500420e+02
  4.687947e+00    3.610287e+02
  4.691063e+00    5.603053e+02
  4.694179e+00    8.734251e+02
  4.697295e+00    1.266395e+03
  4.700410e+00    1.668387e+03
  4.703526e+00    1.957672e+03
  4.706642e+00    2.073687e+03
  4.709758e+00    1.992275e+03
  4.712874e+00    1.746305e+03
  4.715990e+00    1.408770e+03
  4.719106e+00    1.040652e+03
  4.722222e+00    7.205587e+02
  4.725338e+00    4.739054e+02
  4.728454e+00    3.192444e+02
  4.731570e+00    2.287000e+02
  4.734686e+00    1.819344e+02
  4.737802e+00    1.567791e+02
  4.740918e+00    1.429410e+02
  4.744034e+00    1.343425e+02
  4.747150e+00    1.289452e+02
  4.750266e+00    1.249812e+02
  4.753382e+00    1.220320e+02
  4.756498e+00    1.194210e+02
  4.759614e+00    1.172596e+02
  4.762729e+00    1.154128e+02
  4.765845e+00    1.139720e+02
  4.768961e+00    1.126644e+02
  4.772077e+00    1.111607e+02
  4.775193e+00    1.099253e+02
  4.778309e+00    1.090006e+02
  4.781425e+00    1.083659e+02
  4.784541e+00    1.075293e+02
  4.787657e+00    1.063675e+02
  4.790773e+00    1.055172e+02
  4.793889e+00    1.049128e+02
  4.797005e+00    1.042991e+02
  4.800121e+00    1.038410e+02
  4.803237e+00    1.032277e+02
  4.806353e+00    1.027076e+02
  4.809469e+00    1.021181e+02
  4.812585e+00    1.014903e+02
  4.815701e+00    1.012414e+02
  4.818817e+00    1.009595e+02
  4.821933e+00    1.007057e+02
  4.825048e+00    1.003762e+02
  4.828164e+00    1.000702e+02
  4.831280e+00    9.980113e+01
  4.834396e+00    9.945763e+01
  4.837512e+00    9.927496e+01
  4.840628e+00    9.911830e+01
  4.843744e+00    9.863387e+01
  4.846860e+00    9.849707e+01
  4.849976e+00    9.843738e+01
  4.853092e+00    9.860680e+01
  4.856208e+00    9.820074e+01
  4.859324e+00    9.803291e+01
  4.862440e+00    9.782227e+01
  4.865556e+00    9.793075e+01
  4.868672e+00    9.775150e+01
  4.871788e+00    9.762280e+01
  4.874904e+00    9.756334e+01
  4.878020e+00    9.750841e+01
  4.881136e+00    9.742014e+01
  4.884252e+00    9.719958e+01
  4.887367e+00    9.713073e+01
  4.890483e+00    9.703030e+01
  4.893599e+00    9.705083e+01
  4.896715e+00    9.691404e+01
  4.899831e+00    9.695021e+01
  4.902947e+00    9.673577e+01
  4.906063e+00    9.670906e+01
  4.909179e+00    9.691061e+01
  4.912295e+00    9.697811e+01
  4.915411e+00    9.682324e+01
  4.918527e+00    9.694053e+01
  4.921643e+00    9.715630e+01
  4.924759e+00    9.740427e+01
  4.927875e+00    9.753545e+01
  4.930991e+00    9.747659e+01
  4.934107e+00    9.733202e+01
  4.937223e+00    9.739912e+01
  4.940339e+00    9.744535e+01
  4.943455e+00    9.756843e+01
  4.946571e+00    9.752903e+01
  4.949686e+00    9.745475e+01
  4.952802e+00    9.742656e+01
  4.955918e+00    9.729457e+01
  4.959034e+00    9.714975e+01
  4.962150e+00    9.714440e+01
  4.965266e+00    9.732401e+01
  4.968382e+00    9.726448e+01
  4.971498e+00    9.724970e+01
  4.974614e+00    9.747523e+01
  4.977730e+00    9.762168e+01
  4.980846e+00    9.734526e+01
  4.983962e+00    9.702694e+01
  4.987078e+00    9.681797e+01
  4.990194e+00    9.662888e+01
  4.993310e+00    9.663790e+01
  4.996426e+00    9.674844e+01
  4.999542e+00    9.689212e+01
  5.002658e+00    9.692271e+01
  5.005774e+00    9.697473e+01
  5.008890e+00    9.687335e+01
  5.012005e+00    9.690533e+01
  5.015121e+00    9.695338e+01
  5.018237e+00    9.723976e+01
  5.021353e+00    9.743703e+01
  5.024469e+00    9.734129e+01
  5.027585e+00    9.728275e+01
  5.030701e+00    9.731182e+01
  5.033817e+00    9.749093e+01
  5.036933e+00    9.777258e+01
  5.040049e+00    9.794182e+01
  5.043165e+00    9.796473e+01
  5.046281e+00    9.797177e+01
  5.049397e+00    9.819133e+01
  5.052513e+00    9.844373e+01
  5.055629e+00    9.843612e+01
  5.058745e+00    9.851468e+01
  5.061861e+00    9.879948e+01
  5.064977e+00    9.920612e+01
  5.068093e+00    9.946375e+01
  5.071209e+00    9.986939e+01
  5.074324e+00    9.990778e+01
  5.077440e+00    9.977930e+01
  5.080556e+00    9.947733e+01
  5.083672e+00    9.912888e+01
  5.086788e+00    9.882276e+01
  5.089904e+00    9.846062e+01
  5.093020e+00    9.835511e+01
  5.096136e+00    9.799416e+01
  5.099252e+00    9.772773e+01
  5.102368e+00    9.781469e+01
  5.105484e+00    9.794194e+01
  5.108600e+00    9.782339e+01
  5.111716e+00    9.775065e+01
  5.114832e+00    9.776823e+01
  5.117948e+00    9.779298e+01
  5.121064e+00    9.775091e+01
  5.124180e+00    9.752607e+01
  5.127296e+00    9.766333e+01
  5.130412e+00    9.780910e+01
  5.133528e+00    9.788521e+01
  5.136643e+00    9.816892e+01
  5.139759e+00    9.833860e+01
  5.142875e+00    9.835355e+01
  5.145991e+00    9.819386e+01
  5.149107e+00    9.836176e+01
  5.152223e+00    9.830878e+01
  5.155339e+00    9.830537e+01
  5.158455e+00    9.857452e+01
  5.161571e+00    9.878008e+01
  5.164687e+00    9.899841e+01
  5.167803e+00    9.909457e+01
  5.170919e+00    9.900970e+01
  5.174035e+00    9.897485e+01
  5.177151e+00    9.923792e+01
  5.180267e+00    9.942691e+01
  5.183383e+00    9.950301e+01
  5.186499e+00    9.968507e+01
  5.189615e+00    9.970045e+01
  5.192731e+00    9.965623e+01
  5.195847e+00    9.977415e+01
  5.198962e+00    1.000058e+02
  5.202078e+00    1.003125e+02
  5.205194e+00    1.006041e+02
  5.208310e+00    1.006585e+02
  5.211426e+00    1.008187e+02
  5.214542e+00    1.007096e+02
  5.217658e+00    1.008817e+02
  5.220774e+00    1.009884e+02
  5.223890e+00    1.013541e+02
  5.227006e+00    1.014894e+02
  5.230122e+00    1.014664e+02
  5.233238e+00    1.015637e+02
  5.236354e+00    1.018018e+02
  5.239470e+00    1.022192e+02
  5.242586e+00    1.021873e+02
  5.245702e+00    1.021688e+02
  5.248818e+00    1.024010e+02
  5.251934e+00    1.028823e+02
  5.255050e+00    1.030631e+02
  5.258166e+00    1.031689e+02
  5.261281e+00    1.036282e+02
  5.264397e+00    1.037867e+02
  5.267513e+00    1.036587e+02
  5.270629e+00    1.034692e+02
  5.273745e+00    1.036351e+02
  5.276861e+00    1.038170e+02
  5.279977e+00    1.040572e+02
  5.283093e+00    1.042263e+02
  5.286209e+00    1.043171e+02
  5.289325e+00    1.043167e+02
  5.292441e+00    1.045231e+02
  5.295557e+00    1.050060e+02
  5.298673e+00    1.051705e+02
  5.301789e+00    1.053393e+02
  5.304905e+00    1.056341e+02
  5.308021e+00    1.059521e+02
  5.311137e+00    1.060613e+02
  5.314253e+00    1.063516e+02
  5.317369e+00    1.065495e+02
  5.320485e+00    1.069560e+02
  5.323600e+00    1.071522e+02
  5.326716e+00    1.074354e+02
  5.329832e+00    1.076035e+02
  5.332948e+00    1.080180e+02
  5.336064e+00    1.082413e+02
  5.339180e+00    1.086305e+02
  5.342296e+00    1.088300e+02
  5.345412e+00    1.090284e+02
  5.348528e+00    1.092030e+02
  5.351644e+00    1.096075e+02
  5.354760e+00    1.100393e+02
  5.357876e+00    1.105044e+02
  5.360992e+00    1.110049e+02
  5.364108e+00    1.115576e+02
  5.367224e+00    1.120630e+02
  5.370340e+00    1.125409e+02
  5.373456e+00    1.128841e+02
  5.376572e+00    1.136641e+02
  5.379688e+00    1.144845e+02
  5.382804e+00    1.151539e+02
  5.385919e+00    1.156317e+02
  5.389035e+00    1.163142e+02
  5.392151e+00    1.168073e+02
  5.395267e+00    1.174460e+02
  5.398383e+00    1.180137e+02
  5.401499e+00    1.188236e+02
  5.404615e+00    1.198744e+02
  5.407731e+00    1.210083e+02
  5.410847e+00    1.221710e+02
  5.413963e+00    1.232368e+02
  5.417079e+00    1.241874e+02
  5.420195e+00    1.251105e+02
  5.423311e+00    1.257415e+02
  5.426427e+00    1.264468e+02
  5.429543e+00    1.272061e+02
  5.432659e+00    1.283656e+02
  5.435775e+00    1.297018e+02
  5.438891e+00    1.308970e+02
  5.442007e+00    1.323330e+02
  5.445123e+00    1.341054e+02
  5.448238e+00    1.359420e+02
  5.451354e+00    1.381809e+02
  5.454470e+00    1.406620e+02
  5.457586e+00    1.434925e+02
  5.460702e+00    1.472274e+02
  5.463818e+00    1.520243e+02
  5.466934e+00    1.582649e+02
  5.470050e+00    1.663788e+02
  5.473166e+00    1.781435e+02
  5.476282e+00    1.956162e+02
  5.479398e+00    2.246476e+02
  5.482514e+00    2.732242e+02
  5.485630e+00    3.587711e+02
  5.488746e+00    5.015028e+02
  5.491862e+00    7.344186e+02
  5.494978e+00    1.052268e+03
  5.498094e+00    1.438700e+03
  5.501210e+00    1.793946e+03
  5.504326e+00    2.045660e+03
  5.507442e+00    2.133017e+03
  5.510557e+00    2.071343e+03
  5.513673e+00    1.900478e+03
  5.516789e+00    1.645321e+03
  5.519905e+00    1.342363e+03
  5.523021e+00    1.009956e+03
  5.526137e+00    7.223073e+02
  5.529253e+00    4.964752e+02
  5.532369e+00    3.541221e+02
  5.535485e+00    2.694847e+02
  5.538601e+00    2.233160e+02
  5.541717e+00    1.961741e+02
  5.544833e+00    1.805179e+02
  5.547949e+00    1.700198e+02
  5.551065e+00    1.630953e+02
  5.554181e+00    1.579367e+02
  5.557297e+00    1.543099e+02
  5.560413e+00    1.513519e+02
  5.563529e+00    1.493429e+02
  5.566645e+00    1.476780e+02
  5.569761e+00    1.462273e+02
  5.572876e+00    1.447452e+02
  5.575992e+00    1.434240e+02
  5.579108e+00    1.422441e+02
  5.582224e+00    1.412239e+02
  5.585340e+00    1.402449e+02
  5.588456e+00    1.393511e+02
  5.591572e+00    1.387179e+02
  5.594688e+00    1.384442e+02
  5.597804e+00    1.386234e+02
  5.600920e+00    1.392279e+02
  5.604036e+00    1.402018e+02
  5.607152e+00    1.421875e+02
  5.610268e+00    1.465077e+02
  5.613384e+00    1.560128e+02
  5.616500e+00    1.773493e+02
  5.619616e+00    2.197585e+02
  5.622732e+00    2.978901e+02
  5.625848e+00    4.166137e+02
  5.628964e+00    5.686201e+02
  5.632080e+00    7.158458e+02
  5.635195e+00    8.155892e+02
  5.638311e+00    8.290906e+02
  5.641427e+00    7.349277e+02
  5.644543e+00    5.741880e+02
  5.647659e+00    4.092023e+02
  5.650775e+00    2.798118e+02
  5.653891e+00    2.035769e+02
  5.657007e+00    1.647775e+02
  5.660123e+00    1.482063e+02
  5.663239e+00    1.404199e+02
  5.666355e+00    1.363984e+02
  5.669471e+00    1.338578e+02
  5.672587e+00    1.322792e+02
  5.675703e+00    1.310611e+02
  5.678819e+00    1.299305e+02
  5.681935e+00    1.289312e+02
  5.685051e+00    1.282062e+02
  5.688167e+00    1.277560e+02
  5.691283e+00    1.274283e+02
  5.694399e+00    1.268422e+02
  5.697514e+00    1.262450e+02
  5.700630e+00    1.255689e+02
  5.703746e+00    1.251095e+02
  5.706862e+00    1.248467e+02
  5.709978e+00    1.244247e+02
  5.713094e+00    1.239843e+02
  5.716210e+00    1.237423e+02
  5.719326e+00    1.237034e+02
  5.722442e+00    1.234204e+02
  5.725558e+00    1.231400e+02
  5.728674e+00    1.227777e+02
  5.731790e+00    1.225269e+02
  5.734906e+00    1.222531e+02
  5.738022e+00    1.220798e+02
  5.741138e+00    1.219672e+02
  5.744254e+00    1.217836e+02
  5.747370e+00    1.218378e+02
  5.750486e+00    1.217654e+02
  5.753602e+00    1.214806e+02
  5.756718e+00    1.212775e+02
  5.759833e+00    1.212867e+02
  5.762949e+00    1.213744e+02
  5.766065e+00    1.214829e+02
  5.769181e+00    1.215931e+02
  5.772297e+00    1.217097e+02
  5.775413e+00    1.215517e+02
  5.778529e+00    1.214953e+02
  5.781645e+00    1.213549e+02
  5.784761e+00    1.212944e+02
  5.787877e+00    1.211744e+02
  5.790993e+00    1.211396e+02
  5.794109e+00    1.209907e+02
  5.797225e+00    1.208614e+02
  5.800341e+00    1.206903e+02
  5.803457e+00    1.206891e+02
  5.806573e+00    1.206178e+02
  5.809689e+00    1.207663e+02
  5.812805e+00    1.207361e+02
  5.815921e+00    1.205960e+02
  5.819037e+00    1.202890e+02
  5.822152e+00    1.201672e+02
  5.825268e+00    1.204196e+02
  5.828384e+00    1.204664e+02
  5.831500e+00    1.203807e+02
  5.834616e+00    1.204313e+02
  5.837732e+00    1.205286e+02
  5.840848e+00    1.206492e+02
  5.843964e+00    1.207881e+02
  5.847080e+00    1.209181e+02
  5.850196e+00    1.209321e+02
  5.853312e+00    1.210414e+02
  5.856428e+00    1.211073e+02
  5.859544e+00    1.211577e+02
  5.862660e+00    1.210186e+02
  5.865776e+00    1.210996e+02
  5.868892e+00    1.211613e+02
  5.872008e+00    1.210395e+02
  5.875124e+00    1.211323e+02
  5.878240e+00    1.213443e+02
  5.881356e+00    1.217054e+02
  5.884471e+00    1.218849e+02
  5.887587e+00    1.219944e+02
  5.890703e+00    1.219985e+02
  5.893819e+00    1.219573e+02
  5.896935e+00    1.220102e+02
  5.900051e+00    1.223225e+02
  5.903167e+00    1.226509e+02
  5.906283e+00    1.229439e+02
  5.909399e+00    1.228997e+02
  5.912515e+00    1.226733e+02
  5.915631e+00    1.228098e+02
  5.918747e+00    1.231687e+02
  5.921863e+00    1.234704e+02
  5.924979e+00    1.236681e+02
  5.928095e+00    1.238154e+02
  5.931211e+00    1.238782e+02
  5.934327e+00    1.241958e+02
  5.937443e+00    1.245657e+02
  5.940559e+00    1.247036e+02
  5.943675e+00    1.248532e+02
  5.946790e+00    1.251322e+02
  5.949906e+00    1.254449e+02
  5.953022e+00    1.259397e+02
  5.956138e+00    1.263251e+02
  5.959254e+00    1.264098e+02
  5.962370e+00    1.265676e+02
  5.965486e+00    1.266825e+02
  5.968602e+00    1.269823e+02
  5.971718e+00    1.273009e+02
  5.974834e+00    1.280094e+02
  5.977950e+00    1.286603e+02
  5.981066e+00    1.290574e+02
  5.984182e+00    1.292574e+02
  5.987298e+00    1.297861e+02
  5.990414e+00    1.305855e+02
  5.993530e+00    1.311928e+02
  5.996646e+00    1.317895e+02
  5.999762e+00    1.324304e+02
  6.002878e+00    1.329567e+02
  6.005994e+00    1.335796e+02
  6.009109e+00    1.341221e+02
  6.012225e+00    1.347555e+02
  6.015341e+00    1.354560e+02
  6.018457e+00    1.363680e+02
  6.021573e+00    1.372439e+02
  6.024689e+00    1.382930e+02
  6.027805e+00    1.394113e+02
  6.030921e+00    1.405760e+02
  6.034037e+00    1.418486e+02
  6.037153e+00    1.430507e+02
  6.040269e+00    1.441647e+02
  6.043385e+00    1.454033e+02
  6.046501e+00    1.472007e+02
  6.049617e+00    1.491512e+02
  6.052733e+00    1.514878e+02
  6.055849e+00    1.545756e+02
  6.058965e+00    1.584889e+02
  6.062081e+00    1.636058e+02
  6.065197e+00    1.708436e+02
  6.068313e+00    1.817217e+02
  6.071428e+00    1.996927e+02
  6.074544e+00    2.311172e+02
  6.077660e+00    2.888895e+02
  6.080776e+00    3.912201e+02
  6.083892e+00    5.638953e+02
  6.087008e+00    8.193309e+02
  6.090124e+00    1.142493e+03
  6.093240e+00    1.472800e+03
  6.096356e+00    1.740982e+03
  6.099472e+00    1.897968e+03
  6.102588e+00    1.915464e+03
  6.105704e+00    1.815096e+03
  6.108820e+00    1.621913e+03
  6.111936e+00    1.366619e+03
  6.115052e+00    1.086836e+03
  6.118168e+00    8.113667e+02
  6.121284e+00    5.830805e+02
  6.124400e+00    4.132794e+02
  6.127516e+00    3.053094e+02
  6.130632e+00    2.415283e+02
  6.133747e+00    2.068178e+02
  6.136863e+00    1.869254e+02
  6.139979e+00    1.751710e+02
  6.143095e+00    1.674430e+02
  6.146211e+00    1.620914e+02
  6.149327e+00    1.582120e+02
  6.152443e+00    1.554708e+02
  6.155559e+00    1.531871e+02
  6.158675e+00    1.510980e+02
  6.161791e+00    1.490934e+02
  6.164907e+00    1.475916e+02
  6.168023e+00    1.463553e+02
  6.171139e+00    1.453082e+02
  6.174255e+00    1.441078e+02
  6.177371e+00    1.432067e+02
  6.180487e+00    1.425595e+02
  6.183603e+00    1.422445e+02
  6.186719e+00    1.416934e+02
  6.189835e+00    1.411231e+02
  6.192951e+00    1.408317e+02
  6.196066e+00    1.404231e+02
  6.199182e+00    1.399850e+02
  6.202298e+00    1.392471e+02
  6.205414e+00    1.386830e+02
  6.208530e+00    1.387171e+02
  6.211646e+00    1.390566e+02
  6.214762e+00    1.392382e+02
  6.217878e+00    1.392594e+02
  6.220994e+00    1.392270e+02
  6.224110e+00    1.390981e+02
  6.227226e+00    1.385980e+02
  6.230342e+00    1.379715e+02
  6.233458e+00    1.374782e+02
  6.236574e+00    1.371694e+02
  6.239690e+00    1.368178e+02
  6.242806e+00    1.363180e+02
  6.245922e+00    1.359339e+02
  6.249038e+00    1.355688e+02
  6.252154e+00    1.353445e+02
  6.255270e+00    1.353447e+02
  6.258385e+00    1.353806e+02
  6.261501e+00    1.354222e+02
  6.264617e+00    1.355491e+02
  6.267733e+00    1.356712e+02
  6.270849e+00    1.357310e+02
  6.273965e+00    1.359641e+02
  6.277081e+00    1.361205e+02
  6.280197e+00    1.362122e+02
  6.283313e+00    1.364696e+02
  6.286429e+00    1.365431e+02
  6.289545e+00    1.363490e+02
  6.292661e+00    1.362267e+02
  6.295777e+00    1.362076e+02
  6.298893e+00    1.363006e+02
  6.302009e+00    1.363226e+02
  6.305125e+00    1.366200e+02
  6.308241e+00    1.370209e+02
  6.311357e+00    1.374357e+02
  6.314473e+00    1.379717e+02
  6.317589e+00    1.386766e+02
  6.320704e+00    1.396340e+02
  6.323820e+00    1.409647e+02
  6.326936e+00    1.429462e+02
  6.330052e+00    1.459087e+02
  6.333168e+00    1.508941e+02
  6.336284e+00    1.586891e+02
  6.339400e+00    1.718606e+02
  6.342516e+00    1.923624e+02
  6.345632e+00    2.223905e+02
  6.348748e+00    2.610000e+02
  6.351864e+00    3.032399e+02
  6.354980e+00    3.410790e+02
  6.358096e+00    3.651037e+02
  6.361212e+00    3.697383e+02
  6.364328e+00    3.593382e+02
  6.367444e+00    3.394987e+02
  6.370560e+00    3.144399e+02
  6.373676e+00    2.850318e+02
  6.376792e+00    2.520198e+02
  6.379908e+00    2.197490e+02
  6.383023e+00    1.923826e+02
  6.386139e+00    1.735307e+02
  6.389255e+00    1.622365e+02
  6.392371e+00    1.562081e+02
  6.395487e+00    1.530675e+02
  6.398603e+00    1.516495e+02
  6.401719e+00    1.514628e+02
  6.404835e+00    1.511459e+02
  6.407951e+00    1.511681e+02
  6.411067e+00    1.523729e+02
  6.414183e+00    1.532195e+02
  6.417299e+00    1.540699e+02
  6.420415e+00    1.543704e+02
  6.423531e+00    1.545143e+02
  6.426647e+00    1.546584e+02
  6.429763e+00    1.551862e+02
  6.432879e+00    1.560964e+02
  6.435995e+00    1.570851e+02
  6.439111e+00    1.582932e+02
  6.442227e+00    1.596171e+02
  6.445342e+00    1.609949e+02
  6.448458e+00    1.628190e+02
  6.451574e+00    1.650454e+02
  6.454690e+00    1.674954e+02
  6.457806e+00    1.702771e+02
  6.460922e+00    1.734771e+02
  6.464038e+00    1.773608e+02
  6.467154e+00    1.820855e+02
  6.470270e+00    1.881215e+02
  6.473386e+00    1.964534e+02
  6.476502e+00    2.083749e+02
  6.479618e+00    2.268621e+02
  6.482734e+00    2.574370e+02
  6.485850e+00    3.091951e+02
  6.488966e+00    3.977100e+02
  6.492082e+00    5.420099e+02
  6.495198e+00    7.619830e+02
  6.498314e+00    1.053566e+03
  6.501430e+00    1.387583e+03
  6.504546e+00    1.693600e+03
  6.507661e+00    1.906490e+03
  6.510777e+00    1.989576e+03
  6.513893e+00    1.949557e+03
  6.517009e+00    1.819945e+03
  6.520125e+00    1.630238e+03
  6.523241e+00    1.400690e+03
  6.526357e+00    1.142185e+03
  6.529473e+00    8.847354e+02
  6.532589e+00    6.592128e+02
  6.535705e+00    4.871416e+02
  6.538821e+00    3.726375e+02
  6.541937e+00    3.028470e+02
  6.545053e+00    2.637454e+02
  6.548169e+00    2.423695e+02
  6.551285e+00    2.313208e+02
  6.554401e+00    2.266986e+02
  6.557517e+00    2.270755e+02
  6.560633e+00    2.322666e+02
  6.563749e+00    2.445546e+02
  6.566865e+00    2.680933e+02
  6.569980e+00    3.100915e+02
  6.573096e+00    3.815485e+02
  6.576212e+00    4.955670e+02
  6.579328e+00    6.610392e+02
  6.582444e+00    8.703929e+02
  6.585560e+00    1.092728e+03
  6.588676e+00    1.278450e+03
  6.591792e+00    1.398305e+03
  6.594908e+00    1.449026e+03
  6.598024e+00    1.466106e+03
  6.601140e+00    1.478622e+03
  6.604256e+00    1.488811e+03
  6.607372e+00    1.461865e+03
  6.610488e+00    1.364389e+03
  6.613604e+00    1.178048e+03
  6.616720e+00    9.416787e+02
  6.619836e+00    7.065646e+02
  6.622952e+00    5.081328e+02
  6.626068e+00    3.641545e+02
  6.629184e+00    2.750267e+02
  6.632299e+00    2.268053e+02
  6.635415e+00    2.015099e+02
  6.638531e+00    1.872057e+02
  6.641647e+00    1.782106e+02
  6.644763e+00    1.718758e+02
  6.647879e+00    1.669651e+02
  6.650995e+00    1.629677e+02
  6.654111e+00    1.597684e+02
  6.657227e+00    1.568872e+02
  6.660343e+00    1.542571e+02
  6.663459e+00    1.524434e+02
  6.666575e+00    1.517792e+02
  6.669691e+00    1.505922e+02
  6.672807e+00    1.492759e+02
  6.675923e+00    1.481834e+02
  6.679039e+00    1.468324e+02
  6.682155e+00    1.453191e+02
  6.685271e+00    1.439919e+02
  6.688387e+00    1.429537e+02
  6.691503e+00    1.422166e+02
  6.694618e+00    1.413405e+02
  6.697734e+00    1.403736e+02
  6.700850e+00    1.391029e+02
  6.703966e+00    1.381513e+02
  6.707082e+00    1.375382e+02
  6.710198e+00    1.368634e+02
  6.713314e+00    1.364708e+02
  6.716430e+00    1.357325e+02
  6.719546e+00    1.349997e+02
  6.722662e+00    1.340710e+02
  6.725778e+00    1.335001e+02
  6.728894e+00    1.330390e+02
  6.732010e+00    1.328855e+02
  6.735126e+00    1.324474e+02
  6.738242e+00    1.318954e+02
  6.741358e+00    1.312952e+02
  6.744474e+00    1.308778e+02
  6.747590e+00    1.305898e+02
  6.750706e+00    1.301212e+02
  6.753822e+00    1.296610e+02
  6.756937e+00    1.292994e+02
  6.760053e+00    1.288364e+02
  6.763169e+00    1.284508e+02
  6.766285e+00    1.281261e+02
  6.769401e+00    1.279903e+02
  6.772517e+00    1.279672e+02
  6.775633e+00    1.278365e+02
  6.778749e+00    1.276416e+02
  6.781865e+00    1.274035e+02
  6.784981e+00    1.272960e+02
  6.788097e+00    1.270154e+02
  6.791213e+00    1.266607e+02
  6.794329e+00    1.261940e+02
  6.797445e+00    1.260339e+02
  6.800561e+00    1.257537e+02
  6.803677e+00    1.254238e+02
  6.806793e+00    1.250562e+02
  6.809909e+00    1.247734e+02
  6.813025e+00    1.245894e+02
  6.816141e+00    1.244771e+02
  6.819256e+00    1.242534e+02
  6.822372e+00    1.238638e+02
  6.825488e+00    1.234482e+02
  6.828604e+00    1.231727e+02
  6.831720e+00    1.229763e+02
  6.834836e+00    1.229125e+02
  6.837952e+00    1.229238e+02
  6.841068e+00    1.230087e+02
  6.844184e+00    1.229708e+02
  6.847300e+00    1.229932e+02
  6.850416e+00    1.230054e+02
  6.853532e+00    1.229425e+02
  6.856648e+00    1.227522e+02
  6.859764e+00    1.225843e+02
  6.862880e+00    1.226386e+02
  6.865996e+00    1.227328e+02
  6.869112e+00    1.229581e+02
  6.872228e+00    1.233656e+02
  6.875344e+00    1.238922e+02
  6.878460e+00    1.249103e+02
  6.881575e+00    1.271459e+02
  6.884691e+00    1.316273e+02
  6.887807e+00    1.405003e+02
  6.890923e+00    1.561260e+02
  6.894039e+00    1.802130e+02
  6.897155e+00    2.115669e+02
  6.900271e+00    2.418770e+02
  6.903387e+00    2.638954e+02
  6.906503e+00    2.718689e+02
  6.909619e+00    2.664188e+02
  6.912735e+00    2.460804e+02
  6.915851e+00    2.155960e+02
  6.918967e+00    1.860558e+02
  6.922083e+00    1.685867e+02
  6.925199e+00    1.665211e+02
  6.928315e+00    1.777572e+02
  6.931431e+00    1.985419e+02
  6.934547e+00    2.246652e+02
  6.937663e+00    2.508921e+02
  6.940779e+00    2.704048e+02
  6.943894e+00    2.779801e+02
  6.947010e+00    2.733946e+02
  6.950126e+00    2.588448e+02
  6.953242e+00    2.379892e+02
  6.956358e+00    2.141452e+02
  6.959474e+00    1.903387e+02
  6.962590e+00    1.689343e+02
  6.965706e+00    1.513417e+02
  6.968822e+00    1.386198e+02
  6.971938e+00    1.300261e+02
  6.975054e+00    1.249155e+02
  6.978170e+00    1.217138e+02
  6.981286e+00    1.198054e+02
  6.984402e+00    1.183815e+02
  6.987518e+00    1.175465e+02
  6.990634e+00    1.166252e+02
  6.993750e+00    1.159627e+02
  6.996866e+00    1.154688e+02
  6.999982e+00    1.151040e+02
  7.003097e+00    1.147151e+02
  7.006213e+00    1.143723e+02
  7.009329e+00    1.143233e+02
  7.012445e+00    1.142069e+02
  7.015561e+00    1.139920e+02
  7.018677e+00    1.135959e+02
  7.021793e+00    1.130925e+02
  7.024909e+00    1.126280e+02
  7.028025e+00    1.124099e+02
  7.031141e+00    1.122737e+02
  7.034257e+00    1.120846e+02
  7.037373e+00    1.116005e+02
  7.040489e+00    1.113772e+02
  7.043605e+00    1.112957e+02
  7.046721e+00    1.113422e+02
  7.049837e+00    1.114179e+02
  7.052953e+00    1.113789e+02
  7.056069e+00    1.112642e+02
  7.059185e+00    1.110000e+02
  7.062301e+00    1.105744e+02
  7.065416e+00    1.103474e+02
  7.068532e+00    1.100677e+02
  7.071648e+00    1.099518e+02
  7.074764e+00    1.097323e+02
  7.077880e+00    1.096237e+02
  7.080996e+00    1.095676e+02
  7.084112e+00    1.095112e+02
  7.087228e+00    1.095072e+02
  7.090344e+00    1.093571e+02
  7.093460e+00    1.091187e+02
  7.096576e+00    1.089296e+02
  7.099692e+00    1.086719e+02
  7.102808e+00    1.085620e+02
  7.105924e+00    1.083191e+02
  7.109040e+00    1.082650e+02
  7.112156e+00    1.083512e+02
  7.115272e+00    1.086172e+02
  7.118388e+00    1.086198e+02
  7.121504e+00    1.085100e+02
  7.124620e+00    1.084077e+02
  7.127735e+00    1.083461e+02
  7.130851e+00    1.081998e+02
  7.133967e+00    1.082157e+02
  7.137083e+00    1.083424e+02
  7.140199e+00    1.086675e+02
  7.143315e+00    1.087516e+02
  7.146431e+00    1.088146e+02
  7.149547e+00    1.085792e+02
  7.152663e+00    1.085583e+02
  7.155779e+00    1.084101e+02
  7.158895e+00    1.082623e+02
  7.162011e+00    1.081284e+02
  7.165127e+00    1.081422e+02
  7.168243e+00    1.085660e+02
  7.171359e+00    1.087976e+02
  7.174475e+00    1.091558e+02
  7.177591e+00    1.093200e+02
  7.180707e+00    1.093986e+02
  7.183823e+00    1.095671e+02
  7.186939e+00    1.098690e+02
  7.190054e+00    1.100970e+02
  7.193170e+00    1.103438e+02
  7.196286e+00    1.104680e+02
  7.199402e+00    1.107765e+02
  7.202518e+00    1.112604e+02
  7.205634e+00    1.120934e+02
  7.208750e+00    1.131477e+02
  7.211866e+00    1.146663e+02
  7.214982e+00    1.175584e+02
  7.218098e+00    1.222518e+02
  7.221214e+00    1.295583e+02
  7.224330e+00    1.417607e+02
  7.227446e+00    1.612680e+02
  7.230562e+00    1.904801e+02
  7.233678e+00    2.292231e+02
  7.236794e+00    2.746587e+02
  7.239910e+00    3.173778e+02
  7.243026e+00    3.491039e+02
  7.246142e+00    3.628790e+02
  7.249258e+00    3.604720e+02
  7.252373e+00    3.477232e+02
  7.255489e+00    3.294102e+02
  7.258605e+00    3.072942e+02
  7.261721e+00    2.798030e+02
  7.264837e+00    2.470063e+02
  7.267953e+00    2.119262e+02
  7.271069e+00    1.795154e+02
  7.274185e+00    1.536611e+02
  7.277301e+00    1.353893e+02
  7.280417e+00    1.238993e+02
  7.283533e+00    1.166125e+02
  7.286649e+00    1.123377e+02
  7.289765e+00    1.097707e+02
  7.292881e+00    1.082591e+02
  7.295997e+00    1.072733e+02
  7.299113e+00    1.065726e+02
  7.302229e+00    1.057693e+02
  7.305345e+00    1.051435e+02
  7.308461e+00    1.047790e+02
  7.311577e+00    1.046053e+02
  7.314692e+00    1.042729e+02
  7.317808e+00    1.038465e+02
  7.320924e+00    1.034475e+02
  7.324040e+00    1.030822e+02
  7.327156e+00    1.026040e+02
  7.330272e+00    1.024170e+02
  7.333388e+00    1.021695e+02
  7.336504e+00    1.021183e+02
  7.339620e+00    1.017493e+02
  7.342736e+00    1.015441e+02
  7.345852e+00    1.013381e+02
  7.348968e+00    1.014434e+02
  7.352084e+00    1.012773e+02
  7.355200e+00    1.011360e+02
  7.358316e+00    1.008720e+02
  7.361432e+00    1.004538e+02
  7.364548e+00    1.002770e+02
  7.367664e+00    1.000178e+02
  7.370780e+00    9.990823e+01
  7.373896e+00    9.944762e+01
  7.377011e+00    9.928162e+01
  7.380127e+00    9.913317e+01
  7.383243e+00    9.909625e+01
  7.386359e+00    9.882985e+01
  7.389475e+00    9.900770e+01
  7.392591e+00    9.885098e+01
  7.395707e+00    9.893016e+01
  7.398823e+00    9.869755e+01
  7.401939e+00    9.873126e+01
  7.405055e+00    9.852032e+01
  7.408171e+00    9.841853e+01
  7.411287e+00    9.813841e+01
  7.414403e+00    9.817199e+01
  7.417519e+00    9.835535e+01
  7.420635e+00    9.838367e+01
  7.423751e+00    9.832169e+01
  7.426867e+00    9.822622e+01
  7.429983e+00    9.848007e+01
  7.433099e+00    9.853575e+01
  7.436215e+00    9.855920e+01
  7.439330e+00    9.822782e+01
  7.442446e+00    9.813889e+01
  7.445562e+00    9.800133e+01
  7.448678e+00    9.770228e+01
  7.451794e+00    9.741570e+01
  7.454910e+00    9.716478e+01
  7.458026e+00    9.695743e+01
  7.461142e+00    9.701534e+01
  7.464258e+00    9.717259e+01
  7.467374e+00    9.754219e+01
  7.470490e+00    9.747644e+01
  7.473606e+00    9.736801e+01
  7.476722e+00    9.719207e+01
  7.479838e+00    9.720560e+01
  7.482954e+00    9.755280e+01
  7.486070e+00    9.781313e+01
  7.489186e+00    9.796819e+01
  7.492302e+00    9.790759e+01
  7.495418e+00    9.810132e+01
  7.498534e+00    9.836243e+01
  7.501649e+00    9.838163e+01
  7.504765e+00    9.783013e+01
  7.507881e+00    9.740247e+01
  7.510997e+00    9.724743e+01
  7.514113e+00    9.743497e+01
  7.517229e+00    9.755356e+01
  7.520345e+00    9.749744e+01
  7.523461e+00    9.753649e+01
  7.526577e+00    9.759465e+01
  7.529693e+00    9.755277e+01
  7.532809e+00    9.743736e+01
  7.535925e+00    9.750046e+01
  7.539041e+00    9.763091e+01
  7.542157e+00    9.771068e+01
  7.545273e+00    9.782476e+01
  7.548389e+00    9.822513e+01
  7.551505e+00    9.849026e+01
  7.554621e+00    9.872764e+01
  7.557737e+00    9.876488e+01
  7.560853e+00    9.892484e+01
  7.563968e+00    9.889935e+01
  7.567084e+00    9.889008e+01
  7.570200e+00    9.878876e+01
  7.573316e+00    9.893916e+01
  7.576432e+00    9.906388e+01
  7.579548e+00    9.946002e+01
  7.582664e+00    9.970054e+01
  7.585780e+00    1.002366e+02
  7.588896e+00    1.009745e+02
  7.592012e+00    1.019005e+02
  7.595128e+00    1.030630e+02
  7.598244e+00    1.044843e+02
  7.601360e+00    1.071793e+02
  7.604476e+00    1.107343e+02
  7.607592e+00    1.168051e+02
  7.610708e+00    1.265322e+02
  7.613824e+00    1.429096e+02
  7.616940e+00    1.663427e+02
  7.620056e+00    1.968162e+02
  7.623172e+00    2.328298e+02
  7.626287e+00    2.698597e+02
  7.629403e+00    3.041103e+02
  7.632519e+00    3.284946e+02
  7.635635e+00    3.388698e+02
  7.638751e+00    3.351613e+02
  7.641867e+00    3.181736e+02
  7.644983e+00    2.929631e+02
  7.648099e+00    2.627350e+02
  7.651215e+00    2.307055e+02
  7.654331e+00    1.998369e+02
  7.657447e+00    1.720824e+02
  7.660563e+00    1.494583e+02
  7.663679e+00    1.325599e+02
  7.666795e+00    1.209465e+02
  7.669911e+00    1.137138e+02
  7.673027e+00    1.089706e+02
  7.676143e+00    1.057691e+02
  7.679259e+00    1.036901e+02
  7.682375e+00    1.023818e+02
  7.685491e+00    1.012522e+02
  7.688606e+00    1.002542e+02
  7.691722e+00    9.951582e+01
  7.694838e+00    9.909776e+01
  7.697954e+00    9.862978e+01
  7.701070e+00    9.821540e+01
  7.704186e+00    9.779359e+01
  7.707302e+00    9.747801e+01
  7.710418e+00    9.748925e+01
  7.713534e+00    9.746133e+01
  7.716650e+00    9.726168e+01
  7.719766e+00    9.717214e+01
  7.722882e+00    9.708974e+01
  7.725998e+00    9.697919e+01
  7.729114e+00    9.656090e+01
  7.732230e+00    9.626663e+01
  7.735346e+00    9.604038e+01
  7.738462e+00    9.599113e+01
  7.741578e+00    9.584280e+01
  7.744694e+00    9.570954e+01
  7.747810e+00    9.586572e+01
  7.750925e+00    9.597759e+01
  7.754041e+00    9.595730e+01
  7.757157e+00    9.561368e+01
  7.760273e+00    9.550535e+01
  7.763389e+00    9.547643e+01
  7.766505e+00    9.553561e+01
  7.769621e+00    9.543602e+01
  7.772737e+00    9.503878e+01
  7.775853e+00    9.480145e+01
  7.778969e+00    9.470733e+01
  7.782085e+00    9.496761e+01
  7.785201e+00    9.476976e+01
  7.788317e+00    9.458009e+01
  7.791433e+00    9.458587e+01
  7.794549e+00    9.488305e+01
  7.797665e+00    9.532909e+01
  7.800781e+00    9.528664e+01
  7.803897e+00    9.507090e+01
  7.807013e+00    9.494556e+01
  7.810129e+00    9.489346e+01
  7.813244e+00    9.475248e+01
  7.816360e+00    9.482484e+01
  7.819476e+00    9.507661e+01
  7.822592e+00    9.527832e+01
  7.825708e+00    9.521842e+01
  7.828824e+00    9.517572e+01
  7.831940e+00    9.502700e+01
  7.835056e+00    9.483781e+01
  7.838172e+00    9.479553e+01
  7.841288e+00    9.494477e+01
  7.844404e+00    9.470124e+01
  7.847520e+00    9.438094e+01
  7.850636e+00    9.436832e+01
  7.853752e+00    9.444353e+01
  7.856868e+00    9.458242e+01
  7.859984e+00    9.449356e+01
  7.863100e+00    9.461575e+01
  7.866216e+00    9.446844e+01
  7.869332e+00    9.486821e+01
  7.872448e+00    9.484522e+01
  7.875563e+00    9.498486e+01
  7.878679e+00    9.511434e+01
  7.881795e+00    9.557164e+01
  7.884911e+00    9.561507e+01
  7.888027e+00    9.519195e+01
  7.891143e+00    9.487460e+01
  7.894259e+00    9.465646e+01
  7.897375e+00    9.485375e+01
  7.900491e+00    9.506814e+01
  7.903607e+00    9.507636e+01
  7.906723e+00    9.515199e+01
  7.909839e+00    9.532489e+01
  7.912955e+00    9.536084e+01
  7.916071e+00    9.525272e+01
  7.919187e+00    9.514975e+01
  7.922303e+00    9.556026e+01
  7.925419e+00    9.584344e+01
  7.928535e+00    9.605392e+01
  7.931651e+00    9.600197e+01
  7.934767e+00    9.623494e+01
  7.937882e+00    9.675627e+01
  7.940998e+00    9.739090e+01
  7.944114e+00    9.845483e+01
  7.947230e+00    9.989262e+01
  7.950346e+00    1.022176e+02
  7.953462e+00    1.058110e+02
  7.956578e+00    1.114128e+02
  7.959694e+00    1.195999e+02
  7.962810e+00    1.303056e+02
  7.965926e+00    1.415625e+02
  7.969042e+00    1.525944e+02
  7.972158e+00    1.612643e+02
  7.975274e+00    1.662048e+02
  7.978390e+00    1.648217e+02
  7.981506e+00    1.566552e+02
  7.984622e+00    1.435693e+02
  7.987738e+00    1.288928e+02
  7.990854e+00    1.170450e+02
  7.993970e+00    1.091107e+02
  7.997086e+00    1.038018e+02
  8.000201e+00    1.010265e+02
  8.003317e+00    9.920386e+01
  8.006433e+00    9.861176e+01
  8.009549e+00    9.816850e+01
  8.012665e+00    9.824258e+01
  8.015781e+00    9.805212e+01
  8.018897e+00    9.788518e+01
  8.022013e+00    9.766997e+01
  8.025129e+00    9.775636e+01
  8.028245e+00    9.781347e+01
  8.031361e+00    9.764822e+01
  8.034477e+00    9.775555e+01
  8.037593e+00    9.801046e+01
  8.040709e+00    9.807888e+01
  8.043825e+00    9.770593e+01
  8.046941e+00    9.746647e+01
  8.050057e+00    9.730859e+01
  8.053173e+00    9.746973e+01
  8.056289e+00    9.719003e+01
  8.059405e+00    9.722730e+01
  8.062520e+00    9.765118e+01
  8.065636e+00    9.787777e+01
  8.068752e+00    9.782016e+01
  8.071868e+00    9.774887e+01
  8.074984e+00    9.789960e+01
  8.078100e+00    9.771416e+01
  8.081216e+00    9.822254e+01
  8.084332e+00    9.882590e+01
  8.087448e+00    9.910973e+01
  8.090564e+00    9.857445e+01
  8.093680e+00    9.852213e+01
  8.096796e+00    9.853186e+01
  8.099912e+00    9.855215e+01
  8.103028e+00    9.853168e+01
  8.106144e+00    9.862676e+01
  8.109260e+00    9.913391e+01
  8.112376e+00    9.953576e+01
  8.115492e+00    1.000953e+02
  8.118608e+00    1.002151e+02
  8.121724e+00    1.005034e+02
  8.124839e+00    1.006121e+02
  8.127955e+00    1.007780e+02
  8.131071e+00    1.008513e+02
  8.134187e+00    1.012115e+02
  8.137303e+00    1.015997e+02
  8.140419e+00    1.016685e+02
  8.143535e+00    1.018642e+02
  8.146651e+00    1.021982e+02
  8.149767e+00    1.029880e+02
  8.152883e+00    1.036709e+02
  8.155999e+00    1.041220e+02
  8.159115e+00    1.043168e+02
  8.162231e+00    1.048130e+02
  8.165347e+00    1.052611e+02
  8.168463e+00    1.059881e+02
  8.171579e+00    1.066855e+02
  8.174695e+00    1.073235e+02
  8.177811e+00    1.083196e+02
  8.180927e+00    1.100154e+02
  8.184043e+00    1.120444e+02
  8.187158e+00    1.146362e+02
  8.190274e+00    1.182856e+02
  8.193390e+00    1.254055e+02
  8.196506e+00    1.373558e+02
  8.199622e+00    1.556643e+02
  8.202738e+00    1.837526e+02
  8.205854e+00    2.252896e+02
  8.208970e+00    2.769655e+02
  8.212086e+00    3.348895e+02
  8.215202e+00    3.912043e+02
  8.218318e+00    4.348994e+02
  8.221434e+00    4.589739e+02
  8.224550e+00    4.648020e+02
  8.227666e+00    4.559572e+02
  8.230782e+00    4.389789e+02
  8.233898e+00    4.154724e+02
  8.237014e+00    3.846813e+02
  8.240130e+00    3.476377e+02
  8.243246e+00    3.056377e+02
  8.246362e+00    2.607436e+02
  8.249477e+00    2.190835e+02
  8.252593e+00    1.854264e+02
  8.255709e+00    1.590907e+02
  8.258825e+00    1.409847e+02
  8.261941e+00    1.291034e+02
  8.265057e+00    1.220857e+02
  8.268173e+00    1.180526e+02
  8.271289e+00    1.156668e+02
  8.274405e+00    1.134902e+02
  8.277521e+00    1.117076e+02
  8.280637e+00    1.106427e+02
  8.283753e+00    1.098805e+02
  8.286869e+00    1.090213e+02
  8.289985e+00    1.081277e+02
  8.293101e+00    1.074585e+02
  8.296217e+00    1.073497e+02
  8.299333e+00    1.075756e+02
  8.302449e+00    1.076144e+02
  8.305565e+00    1.070741e+02
  8.308681e+00    1.069392e+02
  8.311796e+00    1.063942e+02
  8.314912e+00    1.062044e+02
  8.318028e+00    1.060228e+02
  8.321144e+00    1.058201e+02
  8.324260e+00    1.053641e+02
  8.327376e+00    1.050291e+02
  8.330492e+00    1.048659e+02
  8.333608e+00    1.051089e+02
  8.336724e+00    1.053878e+02
  8.339840e+00    1.057000e+02
  8.342956e+00    1.058353e+02
  8.346072e+00    1.063303e+02
  8.349188e+00    1.064153e+02
  8.352304e+00    1.062941e+02
  8.355420e+00    1.062384e+02
  8.358536e+00    1.066017e+02
  8.361652e+00    1.068242e+02
  8.364768e+00    1.064319e+02
  8.367884e+00    1.066042e+02
  8.371000e+00    1.072678e+02
  8.374115e+00    1.080062e+02
  8.377231e+00    1.085190e+02
  8.380347e+00    1.091032e+02
  8.383463e+00    1.099758e+02
  8.386579e+00    1.114117e+02
  8.389695e+00    1.138110e+02
  8.392811e+00    1.175082e+02
  8.395927e+00    1.224154e+02
  8.399043e+00    1.288622e+02
  8.402159e+00    1.376179e+02
  8.405275e+00    1.492741e+02
  8.408391e+00    1.628948e+02
  8.411507e+00    1.749255e+02
  8.414623e+00    1.847830e+02
  8.417739e+00    1.903751e+02
  8.420855e+00    1.920990e+02
  8.423971e+00    1.902771e+02
  8.427087e+00    1.853270e+02
  8.430203e+00    1.781284e+02
  8.433319e+00    1.700846e+02
  8.436434e+00    1.603133e+02
  8.439550e+00    1.502757e+02
  8.442666e+00    1.413319e+02
  8.445782e+00    1.335095e+02
  8.448898e+00    1.267170e+02
  8.452014e+00    1.217129e+02
  8.455130e+00    1.174817e+02
  8.458246e+00    1.150427e+02
  8.461362e+00    1.131378e+02
  8.464478e+00    1.128833e+02
  8.467594e+00    1.122160e+02
  8.470710e+00    1.120834e+02
  8.473826e+00    1.113396e+02
  8.476942e+00    1.111780e+02
  8.480058e+00    1.114714e+02
  8.483174e+00    1.120283e+02
  8.486290e+00    1.120952e+02
  8.489406e+00    1.119969e+02
  8.492522e+00    1.121124e+02
  8.495638e+00    1.125918e+02
  8.498753e+00    1.132350e+02
  8.501869e+00    1.137411e+02
  8.504985e+00    1.141379e+02
  8.508101e+00    1.143187e+02
  8.511217e+00    1.144671e+02
  8.514333e+00    1.149375e+02
  8.517449e+00    1.154966e+02
  8.520565e+00    1.156268e+02
  8.523681e+00    1.154941e+02
  8.526797e+00    1.161212e+02
  8.529913e+00    1.169829e+02
  8.533029e+00    1.175302e+02
  8.536145e+00    1.182564e+02
  8.539261e+00    1.194866e+02
  8.542377e+00    1.215534e+02
  8.545493e+00    1.233857e+02
  8.548609e+00    1.252043e+02
  8.551725e+00    1.269241e+02
  8.554841e+00    1.295743e+02
  8.557957e+00    1.336445e+02
  8.561072e+00    1.395904e+02
  8.564188e+00    1.480829e+02
  8.567304e+00    1.606716e+02
  8.570420e+00    1.786868e+02
  8.573536e+00    2.065691e+02
  8.576652e+00    2.482715e+02
  8.579768e+00    3.011266e+02
  8.582884e+00    3.652919e+02
  8.586000e+00    4.385752e+02
  8.589116e+00    5.044635e+02
  8.592232e+00    5.546215e+02
  8.595348e+00    5.814617e+02
  8.598464e+00    5.798045e+02
  8.601580e+00    5.599075e+02
  8.604696e+00    5.272444e+02
  8.607812e+00    4.876588e+02
  8.610928e+00    4.454926e+02
  8.614044e+00    4.008349e+02
  8.617160e+00    3.518592e+02
  8.620276e+00    3.032452e+02
  8.623391e+00    2.589278e+02
  8.626507e+00    2.190684e+02
  8.629623e+00    1.879282e+02
  8.632739e+00    1.664895e+02
  8.635855e+00    1.512726e+02
  8.638971e+00    1.411735e+02
  8.642087e+00    1.348226e+02
  8.645203e+00    1.301823e+02
  8.648319e+00    1.270928e+02
  8.651435e+00    1.247414e+02
  8.654551e+00    1.231795e+02
  8.657667e+00    1.222364e+02
  8.660783e+00    1.220338e+02
  8.663899e+00    1.219485e+02
  8.667015e+00    1.219067e+02
  8.670131e+00    1.229292e+02
  8.673247e+00    1.267548e+02
  8.676363e+00    1.342785e+02
  8.679479e+00    1.455008e+02
  8.682595e+00    1.617753e+02
  8.685710e+00    1.784947e+02
  8.688826e+00    1.943099e+02
  8.691942e+00    2.054263e+02
  8.695058e+00    2.081256e+02
  8.698174e+00    2.064005e+02
  8.701290e+00    1.978797e+02
  8.704406e+00    1.833078e+02
  8.707522e+00    1.643246e+02
  8.710638e+00    1.446425e+02
  8.713754e+00    1.295491e+02
  8.716870e+00    1.203108e+02
  8.719986e+00    1.155790e+02
  8.723102e+00    1.134304e+02
  8.726218e+00    1.125301e+02
  8.729334e+00    1.115771e+02
  8.732450e+00    1.110763e+02
  8.735566e+00    1.106579e+02
  8.738682e+00    1.107114e+02
  8.741798e+00    1.103982e+02
  8.744914e+00    1.103801e+02
  8.748029e+00    1.104684e+02
  8.751145e+00    1.101237e+02
  8.754261e+00    1.097869e+02
  8.757377e+00    1.096328e+02
  8.760493e+00    1.095818e+02
  8.763609e+00    1.096139e+02
  8.766725e+00    1.090504e+02
  8.769841e+00    1.087789e+02
  8.772957e+00    1.083710e+02
  8.776073e+00    1.089539e+02
  8.779189e+00    1.090081e+02
  8.782305e+00    1.089496e+02
  8.785421e+00    1.089060e+02
  8.788537e+00    1.086676e+02
  8.791653e+00    1.084258e+02
  8.794769e+00    1.081066e+02
  8.797885e+00    1.082704e+02
  8.801001e+00    1.089467e+02
  8.804117e+00    1.094552e+02
  8.807233e+00    1.100647e+02
  8.810348e+00    1.098599e+02
  8.813464e+00    1.094451e+02
  8.816580e+00    1.090532e+02
  8.819696e+00    1.095843e+02
  8.822812e+00    1.102414e+02
  8.825928e+00    1.111971e+02
  8.829044e+00    1.131012e+02
  8.832160e+00    1.153674e+02
  8.835276e+00    1.185127e+02
  8.838392e+00    1.236081e+02
  8.841508e+00    1.319346e+02
  8.844624e+00    1.459463e+02
  8.847740e+00    1.646146e+02
  8.850856e+00    1.925271e+02
  8.853972e+00    2.275872e+02
  8.857088e+00    2.663654e+02
  8.860204e+00    3.090523e+02
  8.863320e+00    3.421176e+02
  8.866436e+00    3.615942e+02
  8.869552e+00    3.693641e+02
  8.872667e+00    3.661114e+02
  8.875783e+00    3.569488e+02
  8.878899e+00    3.438117e+02
  8.882015e+00    3.244338e+02
  8.885131e+00    2.979232e+02
  8.888247e+00    2.667453e+02
  8.891363e+00    2.312507e+02
  8.894479e+00    1.979009e+02
  8.897595e+00    1.706645e+02
  8.900711e+00    1.516772e+02
  8.903827e+00    1.412454e+02
  8.906943e+00    1.388279e+02
  8.910059e+00    1.429560e+02
  8.913175e+00    1.516612e+02
  8.916291e+00    1.608577e+02
  8.919407e+00    1.667572e+02
  8.922523e+00    1.712915e+02
  8.925639e+00    1.664002e+02
  8.928755e+00    1.570825e+02
  8.931871e+00    1.408937e+02
  8.934986e+00    1.264692e+02
  8.938102e+00    1.155594e+02
  8.941218e+00    1.075119e+02
  8.944334e+00    1.033862e+02
  8.947450e+00    1.015472e+02
  8.950566e+00    1.006413e+02
  8.953682e+00    1.001427e+02
  8.956798e+00    9.964820e+01
  8.959914e+00    9.922031e+01
  8.963030e+00    9.818846e+01
  8.966146e+00    9.790440e+01
  8.969262e+00    9.823576e+01
  8.972378e+00    9.889396e+01
  8.975494e+00    9.833813e+01
  8.978610e+00    9.720571e+01
  8.981726e+00    9.706827e+01
  8.984842e+00    9.772578e+01
  8.987958e+00    9.742922e+01
  8.991074e+00    9.644197e+01
  8.994190e+00    9.581055e+01
  8.997305e+00    9.662170e+01
  9.000421e+00    9.630569e+01
  9.003537e+00    9.533565e+01
  9.006653e+00    9.432267e+01
  9.009769e+00    9.451457e+01
  9.012885e+00    9.425009e+01
  9.016001e+00    9.388026e+01
  9.019117e+00    9.310661e+01
  9.022233e+00    9.243127e+01
  9.025349e+00    9.175237e+01
  9.028465e+00    9.108535e+01
  9.031581e+00    9.064631e+01
  9.034697e+00    8.996351e+01
  9.037813e+00    9.013184e+01
  9.040929e+00    9.059666e+01
  9.044045e+00    9.001414e+01
  9.047161e+00    8.851839e+01
  9.050277e+00    8.818132e+01
  9.053393e+00    8.796342e+01
  9.056509e+00    8.687086e+01
  9.059624e+00    8.641232e+01
  9.062740e+00    8.645531e+01
  9.065856e+00    8.653916e+01
  9.068972e+00    8.643063e+01
  9.072088e+00    8.636411e+01
  9.075204e+00    8.749092e+01
  9.078320e+00    8.762221e+01
  9.081436e+00    8.942049e+01
  9.084552e+00    9.235610e+01
  9.087668e+00    9.573735e+01
  9.090784e+00    1.004308e+02
  9.093900e+00    1.096063e+02
  9.097016e+00    1.233855e+02
  9.100132e+00    1.385237e+02
  9.103248e+00    1.567871e+02
  9.106364e+00    1.681298e+02
  9.109480e+00    1.749897e+02
  9.112596e+00    1.756021e+02
  9.115712e+00    1.677887e+02
  9.118828e+00    1.601795e+02
  9.121943e+00    1.555155e+02
  9.125059e+00    1.536644e+02
  9.128175e+00    1.500387e+02
  9.131291e+00    1.463872e+02
  9.134407e+00    1.367146e+02
  9.137523e+00    1.265435e+02
  9.140639e+00    1.162649e+02
  9.143755e+00    1.069554e+02
  9.146871e+00    9.644913e+01
  9.149987e+00    9.137943e+01
  9.153103e+00    8.636159e+01
  9.156219e+00    8.294583e+01
  9.159335e+00    8.092912e+01
  9.162451e+00    8.059910e+01
  9.165567e+00    8.031416e+01
  9.168683e+00    8.125050e+01
  9.171799e+00    8.277455e+01
  9.174915e+00    8.308976e+01
  9.178031e+00    8.346977e+01
  9.181147e+00    8.395300e+01
  9.184262e+00    8.536122e+01
  9.187378e+00    8.602318e+01
  9.190494e+00    8.700130e+01
  9.193610e+00    8.854246e+01
  9.196726e+00    8.938148e+01
  9.199842e+00    9.044167e+01
  9.202958e+00    9.173803e+01
  9.206074e+00    9.346509e+01
  9.209190e+00    9.435495e+01
  9.212306e+00    9.520016e+01
  9.215422e+00    9.618371e+01
  9.218538e+00    9.850583e+01
  9.221654e+00    1.045725e+02
  9.224770e+00    1.073793e+02
  9.227886e+00    1.097721e+02
  9.231002e+00    1.129903e+02
  9.234118e+00    1.205903e+02
  9.237234e+00    1.297453e+02
  9.240350e+00    1.426093e+02
  9.243466e+00    1.581398e+02
  9.246581e+00    1.662807e+02
  9.249697e+00    1.746190e+02
  9.252813e+00    1.796736e+02
  9.255929e+00    1.751550e+02
  9.259045e+00    1.700442e+02
  9.262161e+00    1.633547e+02
  9.265277e+00    1.496328e+02
  9.268393e+00    1.374532e+02
  9.271509e+00    1.240055e+02
  9.274625e+00    1.016213e+02
  9.277741e+00    8.787126e+01
  9.280857e+00    7.573499e+01
  9.283973e+00    6.226299e+01
  9.287089e+00    5.002955e+01
  9.290205e+00    4.134702e+01
  9.293321e+00    3.219438e+01
  9.296437e+00    2.720285e+01
  9.299553e+00    2.396561e+01
  9.302669e+00    2.129600e+01
  9.305785e+00    2.085559e+01
  9.308900e+00    1.833818e+01
  9.312016e+00    1.448986e+01
  9.315132e+00    7.468420e+00
  9.318248e+00    7.413764e+00
  9.321364e+00    7.924814e+00
  9.324480e+00    8.306008e+00
  9.327596e+00    9.221031e-01
  9.330712e+00   -2.009965e+00
  9.333828e+00   -3.657484e+00
  9.336944e+00   -1.452623e+00
  9.340060e+00   -1.619043e+00
  9.343176e+00   -1.414325e+00
  9.346292e+00    0.000000e+00
