# == pyFAI calibration ==
# SplineFile: None
# PixelSize: 2.000e-04, 2.000e-04 m
# PONI: 1.995e-01, 2.016e-01 m
# Distance Sample to Detector: 1.79502286468 m
# Rotations: -0.004483 0.004646 0.000019 rad
# 
# == Fit2d calibration ==
# Distance Sample-beamCenter: 1795.060 mm
# Center: x=1048.052, y=1039.198 pix
# Tilt: 0.370 deg  TiltPlanRot: 46.021 deg
# 
# Wavelength: 1.4235e-11
# Polarization factor: None
# Normalization factor: 1.0
# --> /Volumes/desy/desy_2018/TiAlNi/TiAlNi_1-00101.txt
#       2th_deg             I 
  1.557975e-03    1.237992e+01
  4.673925e-03    1.176642e+01
  7.789875e-03    8.402024e+00
  1.090582e-02    8.061690e+00
  1.402177e-02    7.536284e+00
  1.713772e-02    7.954697e+00
  2.025367e-02    6.072236e+00
  2.336962e-02    4.301250e+00
  2.648557e-02    6.820238e+00
  2.960152e-02    8.420678e+00
  3.271747e-02    1.054091e+01
  3.583342e-02    9.739126e+00
  3.894937e-02    8.631167e+00
  4.206532e-02    8.743904e+00
  4.518127e-02    9.299167e+00
  4.829722e-02    8.273484e+00
  5.141317e-02    8.099526e+00
  5.452912e-02    7.561261e+00
  5.764507e-02    8.045765e+00
  6.076102e-02    7.838800e+00
  6.387697e-02    7.492278e+00
  6.699292e-02    8.191774e+00
  7.010887e-02    7.644958e+00
  7.322482e-02    6.427875e+00
  7.634077e-02    8.308137e+00
  7.945672e-02    9.294987e+00
  8.257267e-02    8.150517e+00
  8.568862e-02    5.824080e+00
  8.880457e-02    6.928703e+00
  9.192052e-02    7.936932e+00
  9.503647e-02    8.250813e+00
  9.815242e-02    8.157977e+00
  1.012684e-01    8.965240e+00
  1.043843e-01    8.333344e+00
  1.075003e-01    7.285242e+00
  1.106162e-01    6.650975e+00
  1.137322e-01    7.951719e+00
  1.168481e-01    8.145117e+00
  1.199641e-01    7.310717e+00
  1.230800e-01    6.722669e+00
  1.261960e-01    7.341793e+00
  1.293119e-01    7.739449e+00
  1.324279e-01    7.939611e+00
  1.355438e-01    7.743528e+00
  1.386598e-01    7.306265e+00
  1.417757e-01    6.785033e+00
  1.448917e-01    7.108382e+00
  1.480076e-01    7.852746e+00
  1.511236e-01    8.361685e+00
  1.542395e-01    8.841382e+00
  1.573555e-01    8.963345e+00
  1.604714e-01    9.172313e+00
  1.635874e-01    1.110594e+01
  1.667033e-01    1.351086e+01
  1.698193e-01    1.554447e+01
  1.729352e-01    1.744538e+01
  1.760512e-01    1.945827e+01
  1.791671e-01    2.175928e+01
  1.822831e-01    2.324948e+01
  1.853990e-01    2.420219e+01
  1.885150e-01    2.558248e+01
  1.916309e-01    2.758302e+01
  1.947469e-01    2.989369e+01
  1.978628e-01    3.165445e+01
  2.009788e-01    3.444789e+01
  2.040947e-01    3.600884e+01
  2.072107e-01    3.727822e+01
  2.103266e-01    3.816171e+01
  2.134426e-01    4.056578e+01
  2.165585e-01    4.269438e+01
  2.196745e-01    4.475528e+01
  2.227904e-01    4.633021e+01
  2.259064e-01    4.782642e+01
  2.290223e-01    4.943618e+01
  2.321383e-01    5.142305e+01
  2.352542e-01    5.239596e+01
  2.383702e-01    5.379182e+01
  2.414861e-01    5.545839e+01
  2.446021e-01    5.811315e+01
  2.477180e-01    5.942495e+01
  2.508340e-01    5.763700e+01
  2.539499e-01    5.650446e+01
  2.570659e-01    5.907249e+01
  2.601818e-01    6.145169e+01
  2.632978e-01    6.510355e+01
  2.664137e-01    6.738515e+01
  2.695297e-01    7.016389e+01
  2.726456e-01    7.219370e+01
  2.757616e-01    7.438799e+01
  2.788775e-01    7.596588e+01
  2.819935e-01    7.796178e+01
  2.851094e-01    7.942889e+01
  2.882254e-01    8.103358e+01
  2.913413e-01    8.242551e+01
  2.944573e-01    8.417462e+01
  2.975732e-01    8.543964e+01
  3.006892e-01    8.654897e+01
  3.038051e-01    8.734684e+01
  3.069211e-01    8.868277e+01
  3.100370e-01    8.934011e+01
  3.131530e-01    9.034653e+01
  3.162689e-01    9.232510e+01
  3.193849e-01    9.397272e+01
  3.225008e-01    9.503177e+01
  3.256168e-01    9.582652e+01
  3.287327e-01    9.758062e+01
  3.318487e-01    9.995506e+01
  3.349646e-01    1.022115e+02
  3.380806e-01    1.039582e+02
  3.411965e-01    1.050718e+02
  3.443125e-01    1.054520e+02
  3.474284e-01    1.064571e+02
  3.505444e-01    1.084223e+02
  3.536603e-01    1.111693e+02
  3.567763e-01    1.130340e+02
  3.598922e-01    1.147279e+02
  3.630082e-01    1.164578e+02
  3.661241e-01    1.183069e+02
  3.692401e-01    1.194776e+02
  3.723560e-01    1.213083e+02
  3.754720e-01    1.234960e+02
  3.785879e-01    1.247108e+02
  3.817039e-01    1.256421e+02
  3.848198e-01    1.279249e+02
  3.879358e-01    1.296308e+02
  3.910517e-01    1.303213e+02
  3.941677e-01    1.316672e+02
  3.972836e-01    1.327387e+02
  4.003996e-01    1.345864e+02
  4.035155e-01    1.373316e+02
  4.066315e-01    1.392052e+02
  4.097474e-01    1.399273e+02
  4.128634e-01    1.411936e+02
  4.159793e-01    1.429394e+02
  4.190953e-01    1.452511e+02
  4.222112e-01    1.464527e+02
  4.253272e-01    1.475853e+02
  4.284431e-01    1.498058e+02
  4.315591e-01    1.521483e+02
  4.346750e-01    1.541983e+02
  4.377910e-01    1.562483e+02
  4.409069e-01    1.588825e+02
  4.440229e-01    1.602107e+02
  4.471388e-01    1.609612e+02
  4.502548e-01    1.627669e+02
  4.533707e-01    1.656272e+02
  4.564867e-01    1.685221e+02
  4.596026e-01    1.712358e+02
  4.627186e-01    1.731279e+02
  4.658345e-01    1.753322e+02
  4.689505e-01    1.764713e+02
  4.720664e-01    1.783973e+02
  4.751824e-01    1.800997e+02
  4.782983e-01    1.820910e+02
  4.814143e-01    1.832572e+02
  4.845302e-01    1.849410e+02
  4.876462e-01    1.862651e+02
  4.907621e-01    1.865640e+02
  4.938781e-01    1.869227e+02
  4.969940e-01    1.877609e+02
  5.001100e-01    1.884353e+02
  5.032259e-01    1.881138e+02
  5.063419e-01    1.879205e+02
  5.094578e-01    1.879256e+02
  5.125738e-01    1.875947e+02
  5.156897e-01    1.885321e+02
  5.188057e-01    1.883868e+02
  5.219216e-01    1.884826e+02
  5.250376e-01    1.890172e+02
  5.281535e-01    1.899641e+02
  5.312695e-01    1.906609e+02
  5.343854e-01    1.911000e+02
  5.375014e-01    1.910511e+02
  5.406173e-01    1.913686e+02
  5.437333e-01    1.923905e+02
  5.468492e-01    1.931302e+02
  5.499652e-01    1.932478e+02
  5.530811e-01    1.925834e+02
  5.561971e-01    1.917381e+02
  5.593130e-01    1.921445e+02
  5.624290e-01    1.917941e+02
  5.655449e-01    1.917884e+02
  5.686609e-01    1.913353e+02
  5.717768e-01    1.912914e+02
  5.748928e-01    1.907555e+02
  5.780087e-01    1.911609e+02
  5.811247e-01    1.910437e+02
  5.842406e-01    1.906818e+02
  5.873566e-01    1.899833e+02
  5.904725e-01    1.898331e+02
  5.935885e-01    1.892925e+02
  5.967044e-01    1.879532e+02
  5.998204e-01    1.882832e+02
  6.029363e-01    1.890392e+02
  6.060523e-01    1.899577e+02
  6.091682e-01    1.890683e+02
  6.122842e-01    1.890226e+02
  6.154001e-01    1.879179e+02
  6.185161e-01    1.879353e+02
  6.216320e-01    1.874054e+02
  6.247480e-01    1.877257e+02
  6.278639e-01    1.884892e+02
  6.309799e-01    1.883540e+02
  6.340958e-01    1.880782e+02
  6.372118e-01    1.876405e+02
  6.403277e-01    1.877773e+02
  6.434437e-01    1.873510e+02
  6.465596e-01    1.872545e+02
  6.496756e-01    1.877451e+02
  6.527915e-01    1.877252e+02
  6.559075e-01    1.868905e+02
  6.590234e-01    1.867977e+02
  6.621394e-01    1.864725e+02
  6.652553e-01    1.859574e+02
  6.683713e-01    1.852823e+02
  6.714872e-01    1.854035e+02
  6.746032e-01    1.854415e+02
  6.777191e-01    1.862702e+02
  6.808351e-01    1.866051e+02
  6.839510e-01    1.857825e+02
  6.870670e-01    1.850281e+02
  6.901829e-01    1.851492e+02
  6.932989e-01    1.854817e+02
  6.964148e-01    1.853378e+02
  6.995308e-01    1.853205e+02
  7.026467e-01    1.846856e+02
  7.057627e-01    1.850603e+02
  7.088786e-01    1.846313e+02
  7.119946e-01    1.842464e+02
  7.151105e-01    1.837252e+02
  7.182265e-01    1.837198e+02
  7.213424e-01    1.831565e+02
  7.244584e-01    1.826062e+02
  7.275743e-01    1.829452e+02
  7.306903e-01    1.834088e+02
  7.338062e-01    1.829605e+02
  7.369222e-01    1.823606e+02
  7.400381e-01    1.820253e+02
  7.431541e-01    1.821131e+02
  7.462700e-01    1.819465e+02
  7.493860e-01    1.815140e+02
  7.525019e-01    1.811141e+02
  7.556179e-01    1.818505e+02
  7.587338e-01    1.818791e+02
  7.618498e-01    1.815033e+02
  7.649657e-01    1.813232e+02
  7.680817e-01    1.808994e+02
  7.711976e-01    1.806842e+02
  7.743136e-01    1.802029e+02
  7.774295e-01    1.804801e+02
  7.805455e-01    1.792730e+02
  7.836614e-01    1.785887e+02
  7.867774e-01    1.778231e+02
  7.898933e-01    1.778551e+02
  7.930093e-01    1.771027e+02
  7.961252e-01    1.770648e+02
  7.992412e-01    1.765818e+02
  8.023571e-01    1.760704e+02
  8.054731e-01    1.752700e+02
  8.085890e-01    1.752955e+02
  8.117050e-01    1.750332e+02
  8.148209e-01    1.754404e+02
  8.179369e-01    1.748467e+02
  8.210528e-01    1.740648e+02
  8.241688e-01    1.733097e+02
  8.272847e-01    1.734158e+02
  8.304007e-01    1.727668e+02
  8.335166e-01    1.724902e+02
  8.366326e-01    1.720923e+02
  8.397485e-01    1.718356e+02
  8.428645e-01    1.715294e+02
  8.459804e-01    1.721685e+02
  8.490964e-01    1.721558e+02
  8.522123e-01    1.716461e+02
  8.553283e-01    1.709285e+02
  8.584442e-01    1.703983e+02
  8.615602e-01    1.701184e+02
  8.646761e-01    1.694808e+02
  8.677921e-01    1.691307e+02
  8.709080e-01    1.688299e+02
  8.740240e-01    1.689088e+02
  8.771399e-01    1.686239e+02
  8.802559e-01    1.679967e+02
  8.833718e-01    1.672803e+02
  8.864878e-01    1.671278e+02
  8.896037e-01    1.672437e+02
  8.927197e-01    1.673670e+02
  8.958356e-01    1.670397e+02
  8.989516e-01    1.665895e+02
  9.020675e-01    1.655706e+02
  9.051835e-01    1.651358e+02
  9.082994e-01    1.639951e+02
  9.114154e-01    1.641918e+02
  9.145313e-01    1.643253e+02
  9.176473e-01    1.644995e+02
  9.207632e-01    1.640376e+02
  9.238792e-01    1.637926e+02
  9.269951e-01    1.636302e+02
  9.301111e-01    1.637818e+02
  9.332270e-01    1.634174e+02
  9.363430e-01    1.631055e+02
  9.394589e-01    1.627289e+02
  9.425749e-01    1.622701e+02
  9.456908e-01    1.616206e+02
  9.488068e-01    1.610922e+02
  9.519227e-01    1.604495e+02
  9.550387e-01    1.601259e+02
  9.581546e-01    1.597799e+02
  9.612706e-01    1.599570e+02
  9.643865e-01    1.597706e+02
  9.675025e-01    1.594592e+02
  9.706184e-01    1.585001e+02
  9.737344e-01    1.581488e+02
  9.768503e-01    1.574582e+02
  9.799663e-01    1.568958e+02
  9.830822e-01    1.563505e+02
  9.861982e-01    1.563508e+02
  9.893141e-01    1.561255e+02
  9.924301e-01    1.554659e+02
  9.955460e-01    1.551472e+02
  9.986620e-01    1.550071e+02
  1.001778e+00    1.547596e+02
  1.004894e+00    1.543034e+02
  1.008010e+00    1.537240e+02
  1.011126e+00    1.531466e+02
  1.014242e+00    1.525431e+02
  1.017358e+00    1.519877e+02
  1.020474e+00    1.519097e+02
  1.023590e+00    1.517600e+02
  1.026706e+00    1.512384e+02
  1.029821e+00    1.508414e+02
  1.032937e+00    1.507579e+02
  1.036053e+00    1.506113e+02
  1.039169e+00    1.502664e+02
  1.042285e+00    1.501542e+02
  1.045401e+00    1.502894e+02
  1.048517e+00    1.500414e+02
  1.051633e+00    1.499016e+02
  1.054749e+00    1.496579e+02
  1.057865e+00    1.488847e+02
  1.060981e+00    1.483659e+02
  1.064097e+00    1.477670e+02
  1.067213e+00    1.478633e+02
  1.070329e+00    1.479268e+02
  1.073445e+00    1.476107e+02
  1.076561e+00    1.467343e+02
  1.079677e+00    1.464027e+02
  1.082793e+00    1.456710e+02
  1.085909e+00    1.453395e+02
  1.089025e+00    1.450460e+02
  1.092140e+00    1.449290e+02
  1.095256e+00    1.449730e+02
  1.098372e+00    1.450952e+02
  1.101488e+00    1.446446e+02
  1.104604e+00    1.439365e+02
  1.107720e+00    1.433055e+02
  1.110836e+00    1.427345e+02
  1.113952e+00    1.424336e+02
  1.117068e+00    1.423683e+02
  1.120184e+00    1.425923e+02
  1.123300e+00    1.428320e+02
  1.126416e+00    1.423587e+02
  1.129532e+00    1.417305e+02
  1.132648e+00    1.412941e+02
  1.135764e+00    1.411821e+02
  1.138880e+00    1.406472e+02
  1.141996e+00    1.403960e+02
  1.145112e+00    1.398523e+02
  1.148228e+00    1.391552e+02
  1.151344e+00    1.387310e+02
  1.154459e+00    1.385056e+02
  1.157575e+00    1.379615e+02
  1.160691e+00    1.374875e+02
  1.163807e+00    1.376339e+02
  1.166923e+00    1.376285e+02
  1.170039e+00    1.372848e+02
  1.173155e+00    1.371079e+02
  1.176271e+00    1.373655e+02
  1.179387e+00    1.374979e+02
  1.182503e+00    1.374701e+02
  1.185619e+00    1.369478e+02
  1.188735e+00    1.366596e+02
  1.191851e+00    1.364474e+02
  1.194967e+00    1.362532e+02
  1.198083e+00    1.354375e+02
  1.201199e+00    1.349691e+02
  1.204315e+00    1.347283e+02
  1.207431e+00    1.342911e+02
  1.210547e+00    1.345421e+02
  1.213663e+00    1.344262e+02
  1.216778e+00    1.343894e+02
  1.219894e+00    1.340951e+02
  1.223010e+00    1.343234e+02
  1.226126e+00    1.341542e+02
  1.229242e+00    1.339717e+02
  1.232358e+00    1.332203e+02
  1.235474e+00    1.327094e+02
  1.238590e+00    1.319359e+02
  1.241706e+00    1.318990e+02
  1.244822e+00    1.317168e+02
  1.247938e+00    1.321405e+02
  1.251054e+00    1.316670e+02
  1.254170e+00    1.310874e+02
  1.257286e+00    1.304633e+02
  1.260402e+00    1.300168e+02
  1.263518e+00    1.300577e+02
  1.266634e+00    1.302773e+02
  1.269750e+00    1.301516e+02
  1.272866e+00    1.299700e+02
  1.275982e+00    1.297832e+02
  1.279097e+00    1.297228e+02
  1.282213e+00    1.292542e+02
  1.285329e+00    1.293915e+02
  1.288445e+00    1.291726e+02
  1.291561e+00    1.286894e+02
  1.294677e+00    1.282722e+02
  1.297793e+00    1.277842e+02
  1.300909e+00    1.271857e+02
  1.304025e+00    1.271333e+02
  1.307141e+00    1.273051e+02
  1.310257e+00    1.271189e+02
  1.313373e+00    1.264678e+02
  1.316489e+00    1.263634e+02
  1.319605e+00    1.268576e+02
  1.322721e+00    1.268405e+02
  1.325837e+00    1.265226e+02
  1.328953e+00    1.259371e+02
  1.332069e+00    1.251510e+02
  1.335185e+00    1.249064e+02
  1.338301e+00    1.249370e+02
  1.341416e+00    1.250722e+02
  1.344532e+00    1.246215e+02
  1.347648e+00    1.245737e+02
  1.350764e+00    1.246182e+02
  1.353880e+00    1.243530e+02
  1.356996e+00    1.240647e+02
  1.360112e+00    1.236738e+02
  1.363228e+00    1.232043e+02
  1.366344e+00    1.228886e+02
  1.369460e+00    1.228592e+02
  1.372576e+00    1.223749e+02
  1.375692e+00    1.219495e+02
  1.378808e+00    1.218154e+02
  1.381924e+00    1.218405e+02
  1.385040e+00    1.217318e+02
  1.388156e+00    1.216799e+02
  1.391272e+00    1.220241e+02
  1.394388e+00    1.218860e+02
  1.397504e+00    1.215053e+02
  1.400619e+00    1.211474e+02
  1.403735e+00    1.207850e+02
  1.406851e+00    1.208247e+02
  1.409967e+00    1.208300e+02
  1.413083e+00    1.208380e+02
  1.416199e+00    1.205964e+02
  1.419315e+00    1.206363e+02
  1.422431e+00    1.207022e+02
  1.425547e+00    1.203221e+02
  1.428663e+00    1.196785e+02
  1.431779e+00    1.192040e+02
  1.434895e+00    1.189986e+02
  1.438011e+00    1.183839e+02
  1.441127e+00    1.181535e+02
  1.444243e+00    1.186222e+02
  1.447359e+00    1.194647e+02
  1.450475e+00    1.190861e+02
  1.453591e+00    1.186878e+02
  1.456707e+00    1.182374e+02
  1.459823e+00    1.179928e+02
  1.462938e+00    1.177226e+02
  1.466054e+00    1.171201e+02
  1.469170e+00    1.163691e+02
  1.472286e+00    1.160135e+02
  1.475402e+00    1.161993e+02
  1.478518e+00    1.160742e+02
  1.481634e+00    1.157252e+02
  1.484750e+00    1.154650e+02
  1.487866e+00    1.154471e+02
  1.490982e+00    1.154474e+02
  1.494098e+00    1.151112e+02
  1.497214e+00    1.147081e+02
  1.500330e+00    1.143848e+02
  1.503446e+00    1.142821e+02
  1.506562e+00    1.142236e+02
  1.509678e+00    1.141851e+02
  1.512794e+00    1.142661e+02
  1.515910e+00    1.140907e+02
  1.519026e+00    1.135779e+02
  1.522142e+00    1.130499e+02
  1.525257e+00    1.129944e+02
  1.528373e+00    1.129131e+02
  1.531489e+00    1.131702e+02
  1.534605e+00    1.129428e+02
  1.537721e+00    1.130384e+02
  1.540837e+00    1.130747e+02
  1.543953e+00    1.129097e+02
  1.547069e+00    1.125953e+02
  1.550185e+00    1.123392e+02
  1.553301e+00    1.122247e+02
  1.556417e+00    1.125096e+02
  1.559533e+00    1.126964e+02
  1.562649e+00    1.125030e+02
  1.565765e+00    1.122314e+02
  1.568881e+00    1.119169e+02
  1.571997e+00    1.119650e+02
  1.575113e+00    1.121679e+02
  1.578229e+00    1.127185e+02
  1.581345e+00    1.140469e+02
  1.584461e+00    1.170097e+02
  1.587576e+00    1.198564e+02
  1.590692e+00    1.217475e+02
  1.593808e+00    1.213437e+02
  1.596924e+00    1.191514e+02
  1.600040e+00    1.160787e+02
  1.603156e+00    1.134022e+02
  1.606272e+00    1.115685e+02
  1.609388e+00    1.107839e+02
  1.612504e+00    1.101340e+02
  1.615620e+00    1.094742e+02
  1.618736e+00    1.093584e+02
  1.621852e+00    1.094635e+02
  1.624968e+00    1.095117e+02
  1.628084e+00    1.093523e+02
  1.631200e+00    1.088902e+02
  1.634316e+00    1.085766e+02
  1.637432e+00    1.081650e+02
  1.640548e+00    1.080567e+02
  1.643664e+00    1.079043e+02
  1.646780e+00    1.079202e+02
  1.649895e+00    1.079842e+02
  1.653011e+00    1.078931e+02
  1.656127e+00    1.079373e+02
  1.659243e+00    1.080856e+02
  1.662359e+00    1.082772e+02
  1.665475e+00    1.081238e+02
  1.668591e+00    1.077288e+02
  1.671707e+00    1.075245e+02
  1.674823e+00    1.072929e+02
  1.677939e+00    1.067841e+02
  1.681055e+00    1.064913e+02
  1.684171e+00    1.064911e+02
  1.687287e+00    1.062712e+02
  1.690403e+00    1.062166e+02
  1.693519e+00    1.065361e+02
  1.696635e+00    1.065503e+02
  1.699751e+00    1.065458e+02
  1.702867e+00    1.063973e+02
  1.705983e+00    1.061417e+02
  1.709099e+00    1.059848e+02
  1.712214e+00    1.061131e+02
  1.715330e+00    1.060887e+02
  1.718446e+00    1.064297e+02
  1.721562e+00    1.078343e+02
  1.724678e+00    1.108046e+02
  1.727794e+00    1.143785e+02
  1.730910e+00    1.177171e+02
  1.734026e+00    1.191663e+02
  1.737142e+00    1.181799e+02
  1.740258e+00    1.153980e+02
  1.743374e+00    1.121528e+02
  1.746490e+00    1.089686e+02
  1.749606e+00    1.071366e+02
  1.752722e+00    1.060349e+02
  1.755838e+00    1.055766e+02
  1.758954e+00    1.050412e+02
  1.762070e+00    1.047892e+02
  1.765186e+00    1.042785e+02
  1.768302e+00    1.040313e+02
  1.771418e+00    1.040572e+02
  1.774533e+00    1.042164e+02
  1.777649e+00    1.043863e+02
  1.780765e+00    1.046026e+02
  1.783881e+00    1.043493e+02
  1.786997e+00    1.041024e+02
  1.790113e+00    1.042068e+02
  1.793229e+00    1.049401e+02
  1.796345e+00    1.068743e+02
  1.799461e+00    1.109528e+02
  1.802577e+00    1.181912e+02
  1.805693e+00    1.282907e+02
  1.808809e+00    1.387366e+02
  1.811925e+00    1.450374e+02
  1.815041e+00    1.450074e+02
  1.818157e+00    1.384125e+02
  1.821273e+00    1.277515e+02
  1.824389e+00    1.174275e+02
  1.827505e+00    1.102488e+02
  1.830621e+00    1.066657e+02
  1.833737e+00    1.054038e+02
  1.836852e+00    1.042075e+02
  1.839968e+00    1.037641e+02
  1.843084e+00    1.033818e+02
  1.846200e+00    1.033378e+02
  1.849316e+00    1.028604e+02
  1.852432e+00    1.026391e+02
  1.855548e+00    1.021430e+02
  1.858664e+00    1.011655e+02
  1.861780e+00    1.007211e+02
  1.864896e+00    1.008082e+02
  1.868012e+00    1.011544e+02
  1.871128e+00    1.014557e+02
  1.874244e+00    1.012306e+02
  1.877360e+00    1.009014e+02
  1.880476e+00    1.008295e+02
  1.883592e+00    1.009595e+02
  1.886708e+00    1.008231e+02
  1.889824e+00    1.007001e+02
  1.892940e+00    1.007293e+02
  1.896056e+00    1.011011e+02
  1.899171e+00    1.011026e+02
  1.902287e+00    1.007529e+02
  1.905403e+00    1.003227e+02
  1.908519e+00    1.000883e+02
  1.911635e+00    9.989743e+01
  1.914751e+00    9.960259e+01
  1.917867e+00    9.912309e+01
  1.920983e+00    9.922778e+01
  1.924099e+00    9.941364e+01
  1.927215e+00    9.956053e+01
  1.930331e+00    9.951361e+01
  1.933447e+00    9.914014e+01
  1.936563e+00    9.842104e+01
  1.939679e+00    9.832495e+01
  1.942795e+00    9.810480e+01
  1.945911e+00    9.831189e+01
  1.949027e+00    9.809720e+01
  1.952143e+00    9.806778e+01
  1.955259e+00    9.796538e+01
  1.958375e+00    9.813028e+01
  1.961490e+00    9.781832e+01
  1.964606e+00    9.774915e+01
  1.967722e+00    9.756225e+01
  1.970838e+00    9.761383e+01
  1.973954e+00    9.763571e+01
  1.977070e+00    9.804234e+01
  1.980186e+00    9.814639e+01
  1.983302e+00    9.795208e+01
  1.986418e+00    9.806317e+01
  1.989534e+00    9.888181e+01
  1.992650e+00    9.993143e+01
  1.995766e+00    1.009056e+02
  1.998882e+00    1.012395e+02
  2.001998e+00    1.011458e+02
  2.005114e+00    9.990865e+01
  2.008230e+00    9.859077e+01
  2.011346e+00    9.756763e+01
  2.014462e+00    9.703284e+01
  2.017578e+00    9.677477e+01
  2.020694e+00    9.677795e+01
  2.023809e+00    9.690839e+01
  2.026925e+00    9.679884e+01
  2.030041e+00    9.663094e+01
  2.033157e+00    9.722235e+01
  2.036273e+00    9.729885e+01
  2.039389e+00    9.736526e+01
  2.042505e+00    9.728188e+01
  2.045621e+00    9.810917e+01
  2.048737e+00    9.858225e+01
  2.051853e+00    9.886767e+01
  2.054969e+00    9.880139e+01
  2.058085e+00    9.894099e+01
  2.061201e+00    9.889608e+01
  2.064317e+00    9.858936e+01
  2.067433e+00    9.801853e+01
  2.070549e+00    9.766457e+01
  2.073665e+00    9.746098e+01
  2.076781e+00    9.716883e+01
  2.079897e+00    9.684818e+01
  2.083013e+00    9.646447e+01
  2.086128e+00    9.591349e+01
  2.089244e+00    9.544064e+01
  2.092360e+00    9.470857e+01
  2.095476e+00    9.446564e+01
  2.098592e+00    9.447118e+01
  2.101708e+00    9.475491e+01
  2.104824e+00    9.471114e+01
  2.107940e+00    9.465763e+01
  2.111056e+00    9.428988e+01
  2.114172e+00    9.381863e+01
  2.117288e+00    9.347876e+01
  2.120404e+00    9.334038e+01
  2.123520e+00    9.346244e+01
  2.126636e+00    9.379656e+01
  2.129752e+00    9.428722e+01
  2.132868e+00    9.406488e+01
  2.135984e+00    9.345169e+01
  2.139100e+00    9.318530e+01
  2.142216e+00    9.329559e+01
  2.145332e+00    9.338857e+01
  2.148447e+00    9.352071e+01
  2.151563e+00    9.369871e+01
  2.154679e+00    9.364955e+01
  2.157795e+00    9.381361e+01
  2.160911e+00    9.401762e+01
  2.164027e+00    9.424728e+01
  2.167143e+00    9.397281e+01
  2.170259e+00    9.354289e+01
  2.173375e+00    9.320434e+01
  2.176491e+00    9.312470e+01
  2.179607e+00    9.296851e+01
  2.182723e+00    9.314842e+01
  2.185839e+00    9.326191e+01
  2.188955e+00    9.319886e+01
  2.192071e+00    9.286314e+01
  2.195187e+00    9.293256e+01
  2.198303e+00    9.312516e+01
  2.201419e+00    9.344148e+01
  2.204535e+00    9.342107e+01
  2.207651e+00    9.330801e+01
  2.210766e+00    9.266924e+01
  2.213882e+00    9.240600e+01
  2.216998e+00    9.259856e+01
  2.220114e+00    9.293974e+01
  2.223230e+00    9.282839e+01
  2.226346e+00    9.280750e+01
  2.229462e+00    9.267908e+01
  2.232578e+00    9.271245e+01
  2.235694e+00    9.283333e+01
  2.238810e+00    9.291182e+01
  2.241926e+00    9.278449e+01
  2.245042e+00    9.263631e+01
  2.248158e+00    9.279424e+01
  2.251274e+00    9.302199e+01
  2.254390e+00    9.310988e+01
  2.257506e+00    9.316174e+01
  2.260622e+00    9.321197e+01
  2.263738e+00    9.285703e+01
  2.266854e+00    9.246169e+01
  2.269970e+00    9.259557e+01
  2.273085e+00    9.253579e+01
  2.276201e+00    9.274615e+01
  2.279317e+00    9.251159e+01
  2.282433e+00    9.221948e+01
  2.285549e+00    9.199348e+01
  2.288665e+00    9.187355e+01
  2.291781e+00    9.186872e+01
  2.294897e+00    9.220483e+01
  2.298013e+00    9.255749e+01
  2.301129e+00    9.263942e+01
  2.304245e+00    9.203986e+01
  2.307361e+00    9.149233e+01
  2.310477e+00    9.135374e+01
  2.313593e+00    9.114963e+01
  2.316709e+00    9.078200e+01
  2.319825e+00    9.069485e+01
  2.322941e+00    9.110134e+01
  2.326057e+00    9.106210e+01
  2.329173e+00    9.107562e+01
  2.332289e+00    9.080048e+01
  2.335404e+00    9.079414e+01
  2.338520e+00    9.125462e+01
  2.341636e+00    9.171407e+01
  2.344752e+00    9.225736e+01
  2.347868e+00    9.351405e+01
  2.350984e+00    9.483840e+01
  2.354100e+00    9.583537e+01
  2.357216e+00    9.594298e+01
  2.360332e+00    9.528152e+01
  2.363448e+00    9.396908e+01
  2.366564e+00    9.282418e+01
  2.369680e+00    9.184275e+01
  2.372796e+00    9.104251e+01
  2.375912e+00    9.082152e+01
  2.379028e+00    9.087018e+01
  2.382144e+00    9.101260e+01
  2.385260e+00    9.073553e+01
  2.388376e+00    9.021449e+01
  2.391492e+00    9.004251e+01
  2.394608e+00    9.007952e+01
  2.397723e+00    9.012763e+01
  2.400839e+00    9.006602e+01
  2.403955e+00    9.002845e+01
  2.407071e+00    9.013305e+01
  2.410187e+00    9.008694e+01
  2.413303e+00    9.024796e+01
  2.416419e+00    9.060390e+01
  2.419535e+00    9.069342e+01
  2.422651e+00    9.074718e+01
  2.425767e+00    9.105499e+01
  2.428883e+00    9.139948e+01
  2.431999e+00    9.112361e+01
  2.435115e+00    9.082932e+01
  2.438231e+00    9.068903e+01
  2.441347e+00    9.076750e+01
  2.444463e+00    9.052273e+01
  2.447579e+00    9.049187e+01
  2.450695e+00    9.035715e+01
  2.453811e+00    8.980257e+01
  2.456927e+00    8.959386e+01
  2.460042e+00    8.974827e+01
  2.463158e+00    9.020216e+01
  2.466274e+00    9.017161e+01
  2.469390e+00    9.007553e+01
  2.472506e+00    9.004116e+01
  2.475622e+00    9.008586e+01
  2.478738e+00    8.996400e+01
  2.481854e+00    9.002591e+01
  2.484970e+00    9.004314e+01
  2.488086e+00    8.954525e+01
  2.491202e+00    8.910804e+01
  2.494318e+00    8.918474e+01
  2.497434e+00    8.919866e+01
  2.500550e+00    8.884564e+01
  2.503666e+00    8.860371e+01
  2.506782e+00    8.859701e+01
  2.509898e+00    8.874803e+01
  2.513014e+00    8.871987e+01
  2.516130e+00    8.881101e+01
  2.519246e+00    8.892486e+01
  2.522361e+00    8.901741e+01
  2.525477e+00    8.897532e+01
  2.528593e+00    8.907290e+01
  2.531709e+00    8.902610e+01
  2.534825e+00    8.911880e+01
  2.537941e+00    8.940856e+01
  2.541057e+00    8.942619e+01
  2.544173e+00    8.909389e+01
  2.547289e+00    8.901963e+01
  2.550405e+00    8.901426e+01
  2.553521e+00    8.919637e+01
  2.556637e+00    8.944186e+01
  2.559753e+00    8.930614e+01
  2.562869e+00    8.910297e+01
  2.565985e+00    8.912891e+01
  2.569101e+00    8.932434e+01
  2.572217e+00    8.959538e+01
  2.575333e+00    8.972815e+01
  2.578449e+00    8.960777e+01
  2.581565e+00    8.948840e+01
  2.584680e+00    8.972948e+01
  2.587796e+00    8.998015e+01
  2.590912e+00    9.008913e+01
  2.594028e+00    9.045913e+01
  2.597144e+00    9.108618e+01
  2.600260e+00    9.104462e+01
  2.603376e+00    9.038829e+01
  2.606492e+00    8.957639e+01
  2.609608e+00    8.920397e+01
  2.612724e+00    8.912468e+01
  2.615840e+00    8.922746e+01
  2.618956e+00    8.931535e+01
  2.622072e+00    8.919910e+01
  2.625188e+00    8.913519e+01
  2.628304e+00    8.919585e+01
  2.631420e+00    8.913554e+01
  2.634536e+00    8.894897e+01
  2.637652e+00    8.916716e+01
  2.640768e+00    8.943399e+01
  2.643884e+00    8.937453e+01
  2.646999e+00    8.903911e+01
  2.650115e+00    8.871658e+01
  2.653231e+00    8.864926e+01
  2.656347e+00    8.886483e+01
  2.659463e+00    8.900422e+01
  2.662579e+00    8.893520e+01
  2.665695e+00    8.888261e+01
  2.668811e+00    8.873635e+01
  2.671927e+00    8.856975e+01
  2.675043e+00    8.856703e+01
  2.678159e+00    8.867721e+01
  2.681275e+00    8.868300e+01
  2.684391e+00    8.864047e+01
  2.687507e+00    8.898254e+01
  2.690623e+00    8.921449e+01
  2.693739e+00    8.918970e+01
  2.696855e+00    8.923621e+01
  2.699971e+00    8.953619e+01
  2.703087e+00    8.966649e+01
  2.706203e+00    8.959821e+01
  2.709318e+00    8.959892e+01
  2.712434e+00    8.967152e+01
  2.715550e+00    8.969668e+01
  2.718666e+00    8.958468e+01
  2.721782e+00    8.943959e+01
  2.724898e+00    8.958382e+01
  2.728014e+00    8.990698e+01
  2.731130e+00    9.031753e+01
  2.734246e+00    9.067580e+01
  2.737362e+00    9.092793e+01
  2.740478e+00    9.132470e+01
  2.743594e+00    9.220708e+01
  2.746710e+00    9.354070e+01
  2.749826e+00    9.506627e+01
  2.752942e+00    9.610751e+01
  2.756058e+00    9.667563e+01
  2.759174e+00    9.651273e+01
  2.762290e+00    9.573570e+01
  2.765406e+00    9.456351e+01
  2.768522e+00    9.341289e+01
  2.771637e+00    9.228592e+01
  2.774753e+00    9.158306e+01
  2.777869e+00    9.121555e+01
  2.780985e+00    9.105525e+01
  2.784101e+00    9.105549e+01
  2.787217e+00    9.088760e+01
  2.790333e+00    9.097578e+01
  2.793449e+00    9.104188e+01
  2.796565e+00    9.115108e+01
  2.799681e+00    9.123241e+01
  2.802797e+00    9.116091e+01
  2.805913e+00    9.110606e+01
  2.809029e+00    9.134531e+01
  2.812145e+00    9.160305e+01
  2.815261e+00    9.193684e+01
  2.818377e+00    9.240871e+01
  2.821493e+00    9.266591e+01
  2.824609e+00    9.320599e+01
  2.827725e+00    9.365197e+01
  2.830841e+00    9.380488e+01
  2.833956e+00    9.357756e+01
  2.837072e+00    9.327784e+01
  2.840188e+00    9.254491e+01
  2.843304e+00    9.235938e+01
  2.846420e+00    9.225803e+01
  2.849536e+00    9.230933e+01
  2.852652e+00    9.238630e+01
  2.855768e+00    9.233628e+01
  2.858884e+00    9.254041e+01
  2.862000e+00    9.282466e+01
  2.865116e+00    9.287721e+01
  2.868232e+00    9.299693e+01
  2.871348e+00    9.313248e+01
  2.874464e+00    9.346423e+01
  2.877580e+00    9.384843e+01
  2.880696e+00    9.395799e+01
  2.883812e+00    9.412115e+01
  2.886928e+00    9.420372e+01
  2.890044e+00    9.437037e+01
  2.893160e+00    9.459290e+01
  2.896275e+00    9.500052e+01
  2.899391e+00    9.500251e+01
  2.902507e+00    9.522136e+01
  2.905623e+00    9.534015e+01
  2.908739e+00    9.545179e+01
  2.911855e+00    9.545013e+01
  2.914971e+00    9.526205e+01
  2.918087e+00    9.564654e+01
  2.921203e+00    9.599236e+01
  2.924319e+00    9.629227e+01
  2.927435e+00    9.645419e+01
  2.930551e+00    9.661375e+01
  2.933667e+00    9.674156e+01
  2.936783e+00    9.668005e+01
  2.939899e+00    9.670763e+01
  2.943015e+00    9.668418e+01
  2.946131e+00    9.694307e+01
  2.949247e+00    9.710118e+01
  2.952363e+00    9.711288e+01
  2.955479e+00    9.732001e+01
  2.958594e+00    9.773598e+01
  2.961710e+00    9.814999e+01
  2.964826e+00    9.838059e+01
  2.967942e+00    9.850231e+01
  2.971058e+00    9.854917e+01
  2.974174e+00    9.885433e+01
  2.977290e+00    9.940752e+01
  2.980406e+00    9.979465e+01
  2.983522e+00    9.988525e+01
  2.986638e+00    1.002108e+02
  2.989754e+00    1.005657e+02
  2.992870e+00    1.006591e+02
  2.995986e+00    1.005892e+02
  2.999102e+00    1.008486e+02
  3.002218e+00    1.012347e+02
  3.005334e+00    1.014497e+02
  3.008450e+00    1.018817e+02
  3.011566e+00    1.025701e+02
  3.014682e+00    1.032036e+02
  3.017798e+00    1.031034e+02
  3.020913e+00    1.031477e+02
  3.024029e+00    1.032852e+02
  3.027145e+00    1.038842e+02
  3.030261e+00    1.042415e+02
  3.033377e+00    1.046354e+02
  3.036493e+00    1.056346e+02
  3.039609e+00    1.069677e+02
  3.042725e+00    1.085586e+02
  3.045841e+00    1.102284e+02
  3.048957e+00    1.119637e+02
  3.052073e+00    1.130144e+02
  3.055189e+00    1.137393e+02
  3.058305e+00    1.136155e+02
  3.061421e+00    1.126361e+02
  3.064537e+00    1.117221e+02
  3.067653e+00    1.111673e+02
  3.070769e+00    1.112557e+02
  3.073885e+00    1.115231e+02
  3.077001e+00    1.122626e+02
  3.080117e+00    1.129505e+02
  3.083232e+00    1.134765e+02
  3.086348e+00    1.141735e+02
  3.089464e+00    1.150485e+02
  3.092580e+00    1.159022e+02
  3.095696e+00    1.169164e+02
  3.098812e+00    1.182487e+02
  3.101928e+00    1.194741e+02
  3.105044e+00    1.209623e+02
  3.108160e+00    1.226030e+02
  3.111276e+00    1.242262e+02
  3.114392e+00    1.256196e+02
  3.117508e+00    1.272048e+02
  3.120624e+00    1.290305e+02
  3.123740e+00    1.311724e+02
  3.126856e+00    1.331475e+02
  3.129972e+00    1.355395e+02
  3.133088e+00    1.384209e+02
  3.136204e+00    1.420907e+02
  3.139320e+00    1.463866e+02
  3.142436e+00    1.516183e+02
  3.145551e+00    1.581665e+02
  3.148667e+00    1.672948e+02
  3.151783e+00    1.811149e+02
  3.154899e+00    2.032234e+02
  3.158015e+00    2.420656e+02
  3.161131e+00    3.146770e+02
  3.164247e+00    4.598763e+02
  3.167363e+00    7.458652e+02
  3.170479e+00    1.269891e+03
  3.173595e+00    2.071019e+03
  3.176711e+00    3.047743e+03
  3.179827e+00    3.920645e+03
  3.182943e+00    4.374068e+03
  3.186059e+00    4.256807e+03
  3.189175e+00    3.623932e+03
  3.192291e+00    2.704298e+03
  3.195407e+00    1.804757e+03
  3.198523e+00    1.105353e+03
  3.201639e+00    6.645500e+02
  3.204755e+00    4.254224e+02
  3.207870e+00    3.046490e+02
  3.210986e+00    2.436918e+02
  3.214102e+00    2.105942e+02
  3.217218e+00    1.911418e+02
  3.220334e+00    1.790567e+02
  3.223450e+00    1.711083e+02
  3.226566e+00    1.651158e+02
  3.229682e+00    1.600017e+02
  3.232798e+00    1.562586e+02
  3.235914e+00    1.533198e+02
  3.239030e+00    1.510929e+02
  3.242146e+00    1.493478e+02
  3.245262e+00    1.481030e+02
  3.248378e+00    1.476003e+02
  3.251494e+00    1.476668e+02
  3.254610e+00    1.480753e+02
  3.257726e+00    1.478715e+02
  3.260842e+00    1.466943e+02
  3.263958e+00    1.448301e+02
  3.267074e+00    1.426967e+02
  3.270189e+00    1.407496e+02
  3.273305e+00    1.391019e+02
  3.276421e+00    1.380106e+02
  3.279537e+00    1.372803e+02
  3.282653e+00    1.367529e+02
  3.285769e+00    1.369542e+02
  3.288885e+00    1.377896e+02
  3.292001e+00    1.388509e+02
  3.295117e+00    1.396177e+02
  3.298233e+00    1.401761e+02
  3.301349e+00    1.407388e+02
  3.304465e+00    1.407468e+02
  3.307581e+00    1.405790e+02
  3.310697e+00    1.403201e+02
  3.313813e+00    1.401117e+02
  3.316929e+00    1.399730e+02
  3.320045e+00    1.397621e+02
  3.323161e+00    1.395930e+02
  3.326277e+00    1.394403e+02
  3.329393e+00    1.393233e+02
  3.332508e+00    1.391471e+02
  3.335624e+00    1.392416e+02
  3.338740e+00    1.396345e+02
  3.341856e+00    1.401641e+02
  3.344972e+00    1.408092e+02
  3.348088e+00    1.414015e+02
  3.351204e+00    1.421988e+02
  3.354320e+00    1.430847e+02
  3.357436e+00    1.442595e+02
  3.360552e+00    1.456862e+02
  3.363668e+00    1.471755e+02
  3.366784e+00    1.484860e+02
  3.369900e+00    1.498355e+02
  3.373016e+00    1.513477e+02
  3.376132e+00    1.526283e+02
  3.379248e+00    1.534978e+02
  3.382364e+00    1.546320e+02
  3.385480e+00    1.558597e+02
  3.388596e+00    1.569630e+02
  3.391712e+00    1.584889e+02
  3.394827e+00    1.604166e+02
  3.397943e+00    1.624897e+02
  3.401059e+00    1.648656e+02
  3.404175e+00    1.671651e+02
  3.407291e+00    1.699638e+02
  3.410407e+00    1.732176e+02
  3.413523e+00    1.765041e+02
  3.416639e+00    1.801470e+02
  3.419755e+00    1.839403e+02
  3.422871e+00    1.883252e+02
  3.425987e+00    1.932461e+02
  3.429103e+00    1.993760e+02
  3.432219e+00    2.067111e+02
  3.435335e+00    2.170077e+02
  3.438451e+00    2.322870e+02
  3.441567e+00    2.580490e+02
  3.444683e+00    3.065915e+02
  3.447799e+00    4.082549e+02
  3.450915e+00    6.337527e+02
  3.454031e+00    1.093955e+03
  3.457146e+00    1.907647e+03
  3.460262e+00    3.047934e+03
  3.463378e+00    4.273048e+03
  3.466494e+00    5.219105e+03
  3.469610e+00    5.571982e+03
  3.472726e+00    5.374070e+03
  3.475842e+00    4.766875e+03
  3.478958e+00    3.891071e+03
  3.482074e+00    2.912293e+03
  3.485190e+00    2.026493e+03
  3.488306e+00    1.320427e+03
  3.491422e+00    8.356172e+02
  3.494538e+00    5.435795e+02
  3.497654e+00    3.911629e+02
  3.500770e+00    3.140034e+02
  3.503886e+00    2.743065e+02
  3.507002e+00    2.521432e+02
  3.510118e+00    2.391125e+02
  3.513234e+00    2.305194e+02
  3.516350e+00    2.255255e+02
  3.519465e+00    2.227014e+02
  3.522581e+00    2.210616e+02
  3.525697e+00    2.200791e+02
  3.528813e+00    2.205072e+02
  3.531929e+00    2.220364e+02
  3.535045e+00    2.246850e+02
  3.538161e+00    2.283919e+02
  3.541277e+00    2.323759e+02
  3.544393e+00    2.361818e+02
  3.547509e+00    2.399168e+02
  3.550625e+00    2.441237e+02
  3.553741e+00    2.486124e+02
  3.556857e+00    2.534735e+02
  3.559973e+00    2.592519e+02
  3.563089e+00    2.661012e+02
  3.566205e+00    2.739083e+02
  3.569321e+00    2.830244e+02
  3.572437e+00    2.939542e+02
  3.575553e+00    3.067726e+02
  3.578669e+00    3.213422e+02
  3.581784e+00    3.393293e+02
  3.584900e+00    3.629367e+02
  3.588016e+00    3.946075e+02
  3.591132e+00    4.360611e+02
  3.594248e+00    4.935555e+02
  3.597364e+00    5.794274e+02
  3.600480e+00    7.249630e+02
  3.603596e+00    9.939901e+02
  3.606712e+00    1.529490e+03
  3.609828e+00    2.586632e+03
  3.612944e+00    4.527854e+03
  3.616060e+00    7.566398e+03
  3.619176e+00    1.141043e+04
  3.622292e+00    1.505420e+04
  3.625408e+00    1.732479e+04
  3.628524e+00    1.748404e+04
  3.631640e+00    1.560894e+04
  3.634756e+00    1.238873e+04
  3.637872e+00    8.745703e+03
  3.640988e+00    5.547115e+03
  3.644103e+00    3.262674e+03
  3.647219e+00    1.874520e+03
  3.650335e+00    1.142391e+03
  3.653451e+00    7.692001e+02
  3.656567e+00    5.774832e+02
  3.659683e+00    4.696100e+02
  3.662799e+00    4.043887e+02
  3.665915e+00    3.609173e+02
  3.669031e+00    3.297883e+02
  3.672147e+00    3.061542e+02
  3.675263e+00    2.874915e+02
  3.678379e+00    2.720580e+02
  3.681495e+00    2.594340e+02
  3.684611e+00    2.483880e+02
  3.687727e+00    2.386449e+02
  3.690843e+00    2.300008e+02
  3.693959e+00    2.222693e+02
  3.697075e+00    2.150109e+02
  3.700191e+00    2.082746e+02
  3.703307e+00    2.018909e+02
  3.706422e+00    1.961458e+02
  3.709538e+00    1.907957e+02
  3.712654e+00    1.861143e+02
  3.715770e+00    1.815040e+02
  3.718886e+00    1.774931e+02
  3.722002e+00    1.738645e+02
  3.725118e+00    1.703432e+02
  3.728234e+00    1.669048e+02
  3.731350e+00    1.636286e+02
  3.734466e+00    1.609785e+02
  3.737582e+00    1.584136e+02
  3.740698e+00    1.562639e+02
  3.743814e+00    1.543263e+02
  3.746930e+00    1.524730e+02
  3.750046e+00    1.507631e+02
  3.753162e+00    1.492057e+02
  3.756278e+00    1.478852e+02
  3.759394e+00    1.465099e+02
  3.762510e+00    1.452607e+02
  3.765626e+00    1.441147e+02
  3.768741e+00    1.432899e+02
  3.771857e+00    1.425209e+02
  3.774973e+00    1.417262e+02
  3.778089e+00    1.412241e+02
  3.781205e+00    1.410952e+02
  3.784321e+00    1.408750e+02
  3.787437e+00    1.405519e+02
  3.790553e+00    1.401884e+02
  3.793669e+00    1.394290e+02
  3.796785e+00    1.387594e+02
  3.799901e+00    1.382946e+02
  3.803017e+00    1.381347e+02
  3.806133e+00    1.382679e+02
  3.809249e+00    1.383383e+02
  3.812365e+00    1.388159e+02
  3.815481e+00    1.391414e+02
  3.818597e+00    1.397189e+02
  3.821713e+00    1.402555e+02
  3.824829e+00    1.406202e+02
  3.827945e+00    1.404038e+02
  3.831060e+00    1.398636e+02
  3.834176e+00    1.387639e+02
  3.837292e+00    1.373281e+02
  3.840408e+00    1.354905e+02
  3.843524e+00    1.336012e+02
  3.846640e+00    1.319707e+02
  3.849756e+00    1.306095e+02
  3.852872e+00    1.294111e+02
  3.855988e+00    1.280799e+02
  3.859104e+00    1.268381e+02
  3.862220e+00    1.257683e+02
  3.865336e+00    1.250033e+02
  3.868452e+00    1.242489e+02
  3.871568e+00    1.237702e+02
  3.874684e+00    1.236538e+02
  3.877800e+00    1.238931e+02
  3.880916e+00    1.240611e+02
  3.884032e+00    1.242519e+02
  3.887148e+00    1.247183e+02
  3.890264e+00    1.252494e+02
  3.893379e+00    1.254137e+02
  3.896495e+00    1.256143e+02
  3.899611e+00    1.253951e+02
  3.902727e+00    1.248084e+02
  3.905843e+00    1.239704e+02
  3.908959e+00    1.229493e+02
  3.912075e+00    1.220159e+02
  3.915191e+00    1.214691e+02
  3.918307e+00    1.208866e+02
  3.921423e+00    1.205881e+02
  3.924539e+00    1.202998e+02
  3.927655e+00    1.199499e+02
  3.930771e+00    1.198843e+02
  3.933887e+00    1.200285e+02
  3.937003e+00    1.204091e+02
  3.940119e+00    1.206753e+02
  3.943235e+00    1.211064e+02
  3.946351e+00    1.220302e+02
  3.949467e+00    1.231020e+02
  3.952583e+00    1.242303e+02
  3.955698e+00    1.256874e+02
  3.958814e+00    1.277654e+02
  3.961930e+00    1.307331e+02
  3.965046e+00    1.353904e+02
  3.968162e+00    1.430110e+02
  3.971278e+00    1.561375e+02
  3.974394e+00    1.811588e+02
  3.977510e+00    2.293491e+02
  3.980626e+00    3.196149e+02
  3.983742e+00    4.695417e+02
  3.986858e+00    6.918577e+02
  3.989974e+00    9.854620e+02
  3.993090e+00    1.322704e+03
  3.996206e+00    1.649900e+03
  3.999322e+00    1.872060e+03
  4.002438e+00    1.853237e+03
  4.005554e+00    1.575608e+03
  4.008670e+00    1.163274e+03
  4.011786e+00    7.564547e+02
  4.014902e+00    4.611253e+02
  4.018017e+00    2.906458e+02
  4.021133e+00    2.060465e+02
  4.024249e+00    1.680330e+02
  4.027365e+00    1.494052e+02
  4.030481e+00    1.392642e+02
  4.033597e+00    1.324702e+02
  4.036713e+00    1.276265e+02
  4.039829e+00    1.238990e+02
  4.042945e+00    1.209623e+02
  4.046061e+00    1.183872e+02
  4.049177e+00    1.164770e+02
  4.052293e+00    1.146774e+02
  4.055409e+00    1.132287e+02
  4.058525e+00    1.121907e+02
  4.061641e+00    1.110943e+02
  4.064757e+00    1.100167e+02
  4.067873e+00    1.088569e+02
  4.070989e+00    1.077817e+02
  4.074105e+00    1.066846e+02
  4.077221e+00    1.057208e+02
  4.080336e+00    1.052043e+02
  4.083452e+00    1.046012e+02
  4.086568e+00    1.043299e+02
  4.089684e+00    1.040366e+02
  4.092800e+00    1.033489e+02
  4.095916e+00    1.024634e+02
  4.099032e+00    1.021875e+02
  4.102148e+00    1.021711e+02
  4.105264e+00    1.022299e+02
  4.108380e+00    1.021094e+02
  4.111496e+00    1.019927e+02
  4.114612e+00    1.013260e+02
  4.117728e+00    1.008349e+02
  4.120844e+00    1.002886e+02
  4.123960e+00    9.978336e+01
  4.127076e+00    9.925742e+01
  4.130192e+00    9.856558e+01
  4.133308e+00    9.802581e+01
  4.136424e+00    9.759798e+01
  4.139540e+00    9.712180e+01
  4.142655e+00    9.677064e+01
  4.145771e+00    9.648104e+01
  4.148887e+00    9.621364e+01
  4.152003e+00    9.607497e+01
  4.155119e+00    9.599982e+01
  4.158235e+00    9.572820e+01
  4.161351e+00    9.544769e+01
  4.164467e+00    9.519121e+01
  4.167583e+00    9.502900e+01
  4.170699e+00    9.482368e+01
  4.173815e+00    9.465382e+01
  4.176931e+00    9.443409e+01
  4.180047e+00    9.431631e+01
  4.183163e+00    9.403533e+01
  4.186279e+00    9.370288e+01
  4.189395e+00    9.359963e+01
  4.192511e+00    9.354606e+01
  4.195627e+00    9.336250e+01
  4.198743e+00    9.332071e+01
  4.201858e+00    9.357558e+01
  4.204974e+00    9.387393e+01
  4.208090e+00    9.402583e+01
  4.211206e+00    9.394355e+01
  4.214322e+00    9.359309e+01
  4.217438e+00    9.348452e+01
  4.220554e+00    9.328884e+01
  4.223670e+00    9.318439e+01
  4.226786e+00    9.294026e+01
  4.229902e+00    9.268690e+01
  4.233018e+00    9.262851e+01
  4.236134e+00    9.271406e+01
  4.239250e+00    9.269294e+01
  4.242366e+00    9.268525e+01
  4.245482e+00    9.257977e+01
  4.248598e+00    9.217090e+01
  4.251714e+00    9.170262e+01
  4.254830e+00    9.148352e+01
  4.257946e+00    9.141169e+01
  4.261062e+00    9.133907e+01
  4.264177e+00    9.125900e+01
  4.267293e+00    9.097528e+01
  4.270409e+00    9.059647e+01
  4.273525e+00    9.039418e+01
  4.276641e+00    8.988816e+01
  4.279757e+00    8.966349e+01
  4.282873e+00    8.995310e+01
  4.285989e+00    9.031214e+01
  4.289105e+00    9.080926e+01
  4.292221e+00    9.133835e+01
  4.295337e+00    9.157964e+01
  4.298453e+00    9.180668e+01
  4.301569e+00    9.188481e+01
  4.304685e+00    9.180204e+01
  4.307801e+00    9.141860e+01
  4.310917e+00    9.116831e+01
  4.314033e+00    9.075366e+01
  4.317149e+00    9.022125e+01
  4.320265e+00    8.977927e+01
  4.323381e+00    8.946769e+01
  4.326496e+00    8.917704e+01
  4.329612e+00    8.894658e+01
  4.332728e+00    8.868330e+01
  4.335844e+00    8.858176e+01
  4.338960e+00    8.847370e+01
  4.342076e+00    8.852399e+01
  4.345192e+00    8.876218e+01
  4.348308e+00    8.887526e+01
  4.351424e+00    8.876348e+01
  4.354540e+00    8.879317e+01
  4.357656e+00    8.884681e+01
  4.360772e+00    8.891405e+01
  4.363888e+00    8.897111e+01
  4.367004e+00    8.899126e+01
  4.370120e+00    8.898020e+01
  4.373236e+00    8.870626e+01
  4.376352e+00    8.839941e+01
  4.379468e+00    8.850327e+01
  4.382584e+00    8.877470e+01
  4.385700e+00    8.885380e+01
  4.388815e+00    8.884306e+01
  4.391931e+00    8.909800e+01
  4.395047e+00    8.928128e+01
  4.398163e+00    8.954577e+01
  4.401279e+00    8.987804e+01
  4.404395e+00    9.035653e+01
  4.407511e+00    9.067706e+01
  4.410627e+00    9.066975e+01
  4.413743e+00    9.085662e+01
  4.416859e+00    9.100415e+01
  4.419975e+00    9.092934e+01
  4.423091e+00    9.108237e+01
  4.426207e+00    9.116862e+01
  4.429323e+00    9.106279e+01
  4.432439e+00    9.065571e+01
  4.435555e+00    9.059109e+01
  4.438671e+00    9.048969e+01
  4.441787e+00    9.015314e+01
  4.444903e+00    8.958354e+01
  4.448019e+00    8.916007e+01
  4.451134e+00    8.885812e+01
  4.454250e+00    8.863537e+01
  4.457366e+00    8.858446e+01
  4.460482e+00    8.836642e+01
  4.463598e+00    8.820165e+01
  4.466714e+00    8.803108e+01
  4.469830e+00    8.817502e+01
  4.472946e+00    8.836212e+01
  4.476062e+00    8.853933e+01
  4.479178e+00    8.860561e+01
  4.482294e+00    8.856003e+01
  4.485410e+00    8.835679e+01
  4.488526e+00    8.817127e+01
  4.491642e+00    8.817181e+01
  4.494758e+00    8.801117e+01
  4.497874e+00    8.795679e+01
  4.500990e+00    8.801984e+01
  4.504106e+00    8.831050e+01
  4.507222e+00    8.854100e+01
  4.510338e+00    8.864358e+01
  4.513453e+00    8.868267e+01
  4.516569e+00    8.857957e+01
  4.519685e+00    8.876497e+01
  4.522801e+00    8.882879e+01
  4.525917e+00    8.895259e+01
  4.529033e+00    8.894537e+01
  4.532149e+00    8.911842e+01
  4.535265e+00    8.942635e+01
  4.538381e+00    8.981300e+01
  4.541497e+00    9.006610e+01
  4.544613e+00    9.043407e+01
  4.547729e+00    9.059841e+01
  4.550845e+00    9.078833e+01
  4.553961e+00    9.110234e+01
  4.557077e+00    9.156515e+01
  4.560193e+00    9.187389e+01
  4.563309e+00    9.205640e+01
  4.566425e+00    9.258931e+01
  4.569541e+00    9.336481e+01
  4.572657e+00    9.435162e+01
  4.575772e+00    9.533641e+01
  4.578888e+00    9.675461e+01
  4.582004e+00    9.916084e+01
  4.585120e+00    1.024674e+02
  4.588236e+00    1.079638e+02
  4.591352e+00    1.175429e+02
  4.594468e+00    1.340866e+02
  4.597584e+00    1.624575e+02
  4.600700e+00    2.049718e+02
  4.603816e+00    2.592552e+02
  4.606932e+00    3.127632e+02
  4.610048e+00    3.493546e+02
  4.613164e+00    3.552957e+02
  4.616280e+00    3.265805e+02
  4.619396e+00    2.775713e+02
  4.622512e+00    2.208092e+02
  4.625628e+00    1.738582e+02
  4.628744e+00    1.427548e+02
  4.631860e+00    1.251771e+02
  4.634976e+00    1.158955e+02
  4.638091e+00    1.111736e+02
  4.641207e+00    1.089463e+02
  4.644323e+00    1.079069e+02
  4.647439e+00    1.075380e+02
  4.650555e+00    1.078278e+02
  4.653671e+00    1.083971e+02
  4.656787e+00    1.094148e+02
  4.659903e+00    1.107041e+02
  4.663019e+00    1.124381e+02
  4.666135e+00    1.142958e+02
  4.669251e+00    1.167237e+02
  4.672367e+00    1.200023e+02
  4.675483e+00    1.245489e+02
  4.678599e+00    1.310074e+02
  4.681715e+00    1.409180e+02
  4.684831e+00    1.573366e+02
  4.687947e+00    1.864121e+02
  4.691063e+00    2.404532e+02
  4.694179e+00    3.433453e+02
  4.697295e+00    5.257956e+02
  4.700410e+00    8.213616e+02
  4.703526e+00    1.208562e+03
  4.706642e+00    1.623843e+03
  4.709758e+00    1.951071e+03
  4.712874e+00    2.118969e+03
  4.715990e+00    2.091199e+03
  4.719106e+00    1.895079e+03
  4.722222e+00    1.586964e+03
  4.725338e+00    1.220784e+03
  4.728454e+00    8.795148e+02
  4.731570e+00    5.910154e+02
  4.734686e+00    3.936660e+02
  4.737802e+00    2.703096e+02
  4.740918e+00    2.031440e+02
  4.744034e+00    1.661760e+02
  4.747150e+00    1.460286e+02
  4.750266e+00    1.333811e+02
  4.753382e+00    1.253582e+02
  4.756498e+00    1.199837e+02
  4.759614e+00    1.160507e+02
  4.762729e+00    1.129126e+02
  4.765845e+00    1.106319e+02
  4.768961e+00    1.088596e+02
  4.772077e+00    1.071840e+02
  4.775193e+00    1.053863e+02
  4.778309e+00    1.040086e+02
  4.781425e+00    1.027177e+02
  4.784541e+00    1.016280e+02
  4.787657e+00    1.007064e+02
  4.790773e+00    9.955143e+01
  4.793889e+00    9.839233e+01
  4.797005e+00    9.733326e+01
  4.800121e+00    9.666855e+01
  4.803237e+00    9.623322e+01
  4.806353e+00    9.572189e+01
  4.809469e+00    9.503052e+01
  4.812585e+00    9.437666e+01
  4.815701e+00    9.396619e+01
  4.818817e+00    9.384809e+01
  4.821933e+00    9.340082e+01
  4.825048e+00    9.252244e+01
  4.828164e+00    9.188429e+01
  4.831280e+00    9.179103e+01
  4.834396e+00    9.166092e+01
  4.837512e+00    9.142924e+01
  4.840628e+00    9.114405e+01
  4.843744e+00    9.078268e+01
  4.846860e+00    9.055168e+01
  4.849976e+00    9.054280e+01
  4.853092e+00    9.040956e+01
  4.856208e+00    9.014137e+01
  4.859324e+00    8.984332e+01
  4.862440e+00    8.946278e+01
  4.865556e+00    8.918154e+01
  4.868672e+00    8.916988e+01
  4.871788e+00    8.891162e+01
  4.874904e+00    8.857046e+01
  4.878020e+00    8.859138e+01
  4.881136e+00    8.875037e+01
  4.884252e+00    8.882017e+01
  4.887367e+00    8.874632e+01
  4.890483e+00    8.857034e+01
  4.893599e+00    8.835251e+01
  4.896715e+00    8.842490e+01
  4.899831e+00    8.865700e+01
  4.902947e+00    8.868060e+01
  4.906063e+00    8.843116e+01
  4.909179e+00    8.823611e+01
  4.912295e+00    8.810820e+01
  4.915411e+00    8.834237e+01
  4.918527e+00    8.838447e+01
  4.921643e+00    8.824691e+01
  4.924759e+00    8.802847e+01
  4.927875e+00    8.815147e+01
  4.930991e+00    8.808643e+01
  4.934107e+00    8.802196e+01
  4.937223e+00    8.825042e+01
  4.940339e+00    8.829942e+01
  4.943455e+00    8.823253e+01
  4.946571e+00    8.830677e+01
  4.949686e+00    8.856927e+01
  4.952802e+00    8.882153e+01
  4.955918e+00    8.903681e+01
  4.959034e+00    8.912875e+01
  4.962150e+00    8.896207e+01
  4.965266e+00    8.869789e+01
  4.968382e+00    8.847514e+01
  4.971498e+00    8.857571e+01
  4.974614e+00    8.851231e+01
  4.977730e+00    8.845421e+01
  4.980846e+00    8.854063e+01
  4.983962e+00    8.836151e+01
  4.987078e+00    8.813329e+01
  4.990194e+00    8.805738e+01
  4.993310e+00    8.816025e+01
  4.996426e+00    8.822095e+01
  4.999542e+00    8.825613e+01
  5.002658e+00    8.824086e+01
  5.005774e+00    8.838577e+01
  5.008890e+00    8.871886e+01
  5.012005e+00    8.865721e+01
  5.015121e+00    8.856741e+01
  5.018237e+00    8.841386e+01
  5.021353e+00    8.863935e+01
  5.024469e+00    8.891119e+01
  5.027585e+00    8.915332e+01
  5.030701e+00    8.926299e+01
  5.033817e+00    8.929337e+01
  5.036933e+00    8.919312e+01
  5.040049e+00    8.889681e+01
  5.043165e+00    8.883750e+01
  5.046281e+00    8.897240e+01
  5.049397e+00    8.930492e+01
  5.052513e+00    8.943598e+01
  5.055629e+00    8.956210e+01
  5.058745e+00    8.976308e+01
  5.061861e+00    9.010059e+01
  5.064977e+00    9.023888e+01
  5.068093e+00    9.029957e+01
  5.071209e+00    9.037128e+01
  5.074324e+00    9.052518e+01
  5.077440e+00    9.074117e+01
  5.080556e+00    9.104344e+01
  5.083672e+00    9.124317e+01
  5.086788e+00    9.106455e+01
  5.089904e+00    9.062536e+01
  5.093020e+00    9.019044e+01
  5.096136e+00    8.989361e+01
  5.099252e+00    8.943735e+01
  5.102368e+00    8.886604e+01
  5.105484e+00    8.869061e+01
  5.108600e+00    8.871998e+01
  5.111716e+00    8.895143e+01
  5.114832e+00    8.888661e+01
  5.117948e+00    8.865072e+01
  5.121064e+00    8.854732e+01
  5.124180e+00    8.860600e+01
  5.127296e+00    8.856495e+01
  5.130412e+00    8.868128e+01
  5.133528e+00    8.884333e+01
  5.136643e+00    8.874412e+01
  5.139759e+00    8.872218e+01
  5.142875e+00    8.871194e+01
  5.145991e+00    8.881487e+01
  5.149107e+00    8.897170e+01
  5.152223e+00    8.892986e+01
  5.155339e+00    8.899861e+01
  5.158455e+00    8.919985e+01
  5.161571e+00    8.930441e+01
  5.164687e+00    8.950954e+01
  5.167803e+00    8.961353e+01
  5.170919e+00    8.972235e+01
  5.174035e+00    8.964997e+01
  5.177151e+00    8.970419e+01
  5.180267e+00    8.958810e+01
  5.183383e+00    8.966257e+01
  5.186499e+00    8.974658e+01
  5.189615e+00    8.977160e+01
  5.192731e+00    8.982475e+01
  5.195847e+00    9.009135e+01
  5.198962e+00    9.038641e+01
  5.202078e+00    9.062644e+01
  5.205194e+00    9.075658e+01
  5.208310e+00    9.094606e+01
  5.211426e+00    9.091232e+01
  5.214542e+00    9.082259e+01
  5.217658e+00    9.096308e+01
  5.220774e+00    9.095163e+01
  5.223890e+00    9.091718e+01
  5.227006e+00    9.105969e+01
  5.230122e+00    9.126067e+01
  5.233238e+00    9.144216e+01
  5.236354e+00    9.118002e+01
  5.239470e+00    9.137932e+01
  5.242586e+00    9.157642e+01
  5.245702e+00    9.174831e+01
  5.248818e+00    9.193008e+01
  5.251934e+00    9.217185e+01
  5.255050e+00    9.215344e+01
  5.258166e+00    9.218330e+01
  5.261281e+00    9.215560e+01
  5.264397e+00    9.225829e+01
  5.267513e+00    9.244018e+01
  5.270629e+00    9.268365e+01
  5.273745e+00    9.302791e+01
  5.276861e+00    9.341515e+01
  5.279977e+00    9.343579e+01
  5.283093e+00    9.355367e+01
  5.286209e+00    9.374492e+01
  5.289325e+00    9.387128e+01
  5.292441e+00    9.390865e+01
  5.295557e+00    9.389185e+01
  5.298673e+00    9.402318e+01
  5.301789e+00    9.424512e+01
  5.304905e+00    9.445550e+01
  5.308021e+00    9.448637e+01
  5.311137e+00    9.470359e+01
  5.314253e+00    9.498373e+01
  5.317369e+00    9.506051e+01
  5.320485e+00    9.551414e+01
  5.323600e+00    9.590679e+01
  5.326716e+00    9.637122e+01
  5.329832e+00    9.660816e+01
  5.332948e+00    9.648061e+01
  5.336064e+00    9.646043e+01
  5.339180e+00    9.660490e+01
  5.342296e+00    9.687360e+01
  5.345412e+00    9.701415e+01
  5.348528e+00    9.733245e+01
  5.351644e+00    9.765663e+01
  5.354760e+00    9.796545e+01
  5.357876e+00    9.823650e+01
  5.360992e+00    9.847166e+01
  5.364108e+00    9.883584e+01
  5.367224e+00    9.930737e+01
  5.370340e+00    9.992364e+01
  5.373456e+00    1.003146e+02
  5.376572e+00    1.008861e+02
  5.379688e+00    1.015376e+02
  5.382804e+00    1.020948e+02
  5.385919e+00    1.024566e+02
  5.389035e+00    1.028301e+02
  5.392151e+00    1.033908e+02
  5.395267e+00    1.038956e+02
  5.398383e+00    1.043017e+02
  5.401499e+00    1.045175e+02
  5.404615e+00    1.050817e+02
  5.407731e+00    1.058850e+02
  5.410847e+00    1.067127e+02
  5.413963e+00    1.073174e+02
  5.417079e+00    1.083217e+02
  5.420195e+00    1.094961e+02
  5.423311e+00    1.104474e+02
  5.426427e+00    1.111469e+02
  5.429543e+00    1.118497e+02
  5.432659e+00    1.129273e+02
  5.435775e+00    1.141804e+02
  5.438891e+00    1.155096e+02
  5.442007e+00    1.167724e+02
  5.445123e+00    1.181419e+02
  5.448238e+00    1.194331e+02
  5.451354e+00    1.213543e+02
  5.454470e+00    1.235114e+02
  5.457586e+00    1.256474e+02
  5.460702e+00    1.279478e+02
  5.463818e+00    1.307715e+02
  5.466934e+00    1.342857e+02
  5.470050e+00    1.389097e+02
  5.473166e+00    1.446077e+02
  5.476282e+00    1.520808e+02
  5.479398e+00    1.627650e+02
  5.482514e+00    1.782031e+02
  5.485630e+00    2.023507e+02
  5.488746e+00    2.405389e+02
  5.491862e+00    3.068539e+02
  5.494978e+00    4.163863e+02
  5.498094e+00    6.013120e+02
  5.501210e+00    8.750974e+02
  5.504326e+00    1.244168e+03
  5.507442e+00    1.635081e+03
  5.510557e+00    1.980888e+03
  5.513673e+00    2.182651e+03
  5.516789e+00    2.226159e+03
  5.519905e+00    2.137740e+03
  5.523021e+00    1.945300e+03
  5.526137e+00    1.682932e+03
  5.529253e+00    1.353693e+03
  5.532369e+00    1.016943e+03
  5.535485e+00    7.110632e+02
  5.538601e+00    4.914554e+02
  5.541717e+00    3.459379e+02
  5.544833e+00    2.635467e+02
  5.547949e+00    2.156181e+02
  5.551065e+00    1.879898e+02
  5.554181e+00    1.704451e+02
  5.557297e+00    1.592381e+02
  5.560413e+00    1.513919e+02
  5.563529e+00    1.457681e+02
  5.566645e+00    1.412957e+02
  5.569761e+00    1.377313e+02
  5.572876e+00    1.350022e+02
  5.575992e+00    1.325865e+02
  5.579108e+00    1.304933e+02
  5.582224e+00    1.288107e+02
  5.585340e+00    1.277127e+02
  5.588456e+00    1.265714e+02
  5.591572e+00    1.254481e+02
  5.594688e+00    1.247852e+02
  5.597804e+00    1.242677e+02
  5.600920e+00    1.237202e+02
  5.604036e+00    1.232078e+02
  5.607152e+00    1.230522e+02
  5.610268e+00    1.226339e+02
  5.613384e+00    1.224285e+02
  5.616500e+00    1.223005e+02
  5.619616e+00    1.225721e+02
  5.622732e+00    1.230729e+02
  5.625848e+00    1.237573e+02
  5.628964e+00    1.251001e+02
  5.632080e+00    1.275310e+02
  5.635195e+00    1.323837e+02
  5.638311e+00    1.420017e+02
  5.641427e+00    1.632491e+02
  5.644543e+00    2.073406e+02
  5.647659e+00    2.913065e+02
  5.650775e+00    4.222546e+02
  5.653891e+00    5.962068e+02
  5.657007e+00    7.781923e+02
  5.660123e+00    9.091216e+02
  5.663239e+00    9.570842e+02
  5.666355e+00    8.762864e+02
  5.669471e+00    7.045632e+02
  5.672587e+00    5.140435e+02
  5.675703e+00    3.412997e+02
  5.678819e+00    2.319847e+02
  5.681935e+00    1.716848e+02
  5.685051e+00    1.445807e+02
  5.688167e+00    1.320596e+02
  5.691283e+00    1.256590e+02
  5.694399e+00    1.218116e+02
  5.697514e+00    1.195320e+02
  5.700630e+00    1.180203e+02
  5.703746e+00    1.169395e+02
  5.706862e+00    1.160275e+02
  5.709978e+00    1.151221e+02
  5.713094e+00    1.145330e+02
  5.716210e+00    1.140633e+02
  5.719326e+00    1.134460e+02
  5.722442e+00    1.128858e+02
  5.725558e+00    1.121655e+02
  5.728674e+00    1.117192e+02
  5.731790e+00    1.115373e+02
  5.734906e+00    1.113389e+02
  5.738022e+00    1.109957e+02
  5.741138e+00    1.106321e+02
  5.744254e+00    1.102856e+02
  5.747370e+00    1.100357e+02
  5.750486e+00    1.098292e+02
  5.753602e+00    1.096098e+02
  5.756718e+00    1.093665e+02
  5.759833e+00    1.091556e+02
  5.762949e+00    1.090049e+02
  5.766065e+00    1.088843e+02
  5.769181e+00    1.087566e+02
  5.772297e+00    1.086263e+02
  5.775413e+00    1.084845e+02
  5.778529e+00    1.086333e+02
  5.781645e+00    1.085376e+02
  5.784761e+00    1.085269e+02
  5.787877e+00    1.084570e+02
  5.790993e+00    1.082506e+02
  5.794109e+00    1.080338e+02
  5.797225e+00    1.080577e+02
  5.800341e+00    1.082333e+02
  5.803457e+00    1.081113e+02
  5.806573e+00    1.080226e+02
  5.809689e+00    1.080586e+02
  5.812805e+00    1.077823e+02
  5.815921e+00    1.074887e+02
  5.819037e+00    1.072382e+02
  5.822152e+00    1.070339e+02
  5.825268e+00    1.068743e+02
  5.828384e+00    1.067924e+02
  5.831500e+00    1.068491e+02
  5.834616e+00    1.067812e+02
  5.837732e+00    1.068812e+02
  5.840848e+00    1.070060e+02
  5.843964e+00    1.071064e+02
  5.847080e+00    1.072108e+02
  5.850196e+00    1.071910e+02
  5.853312e+00    1.071961e+02
  5.856428e+00    1.073212e+02
  5.859544e+00    1.073737e+02
  5.862660e+00    1.074302e+02
  5.865776e+00    1.076033e+02
  5.868892e+00    1.077424e+02
  5.872008e+00    1.076665e+02
  5.875124e+00    1.076653e+02
  5.878240e+00    1.078507e+02
  5.881356e+00    1.080516e+02
  5.884471e+00    1.080348e+02
  5.887587e+00    1.080514e+02
  5.890703e+00    1.080892e+02
  5.893819e+00    1.081874e+02
  5.896935e+00    1.082471e+02
  5.900051e+00    1.084359e+02
  5.903167e+00    1.086759e+02
  5.906283e+00    1.088209e+02
  5.909399e+00    1.089871e+02
  5.912515e+00    1.089963e+02
  5.915631e+00    1.091287e+02
  5.918747e+00    1.091527e+02
  5.921863e+00    1.092315e+02
  5.924979e+00    1.094022e+02
  5.928095e+00    1.094599e+02
  5.931211e+00    1.096718e+02
  5.934327e+00    1.098125e+02
  5.937443e+00    1.097540e+02
  5.940559e+00    1.095609e+02
  5.943675e+00    1.098071e+02
  5.946790e+00    1.102992e+02
  5.949906e+00    1.106853e+02
  5.953022e+00    1.108259e+02
  5.956138e+00    1.109543e+02
  5.959254e+00    1.112053e+02
  5.962370e+00    1.115205e+02
  5.965486e+00    1.118918e+02
  5.968602e+00    1.120885e+02
  5.971718e+00    1.122958e+02
  5.974834e+00    1.124890e+02
  5.977950e+00    1.127881e+02
  5.981066e+00    1.132712e+02
  5.984182e+00    1.138124e+02
  5.987298e+00    1.142121e+02
  5.990414e+00    1.146295e+02
  5.993530e+00    1.150332e+02
  5.996646e+00    1.156050e+02
  5.999762e+00    1.163212e+02
  6.002878e+00    1.169568e+02
  6.005994e+00    1.173978e+02
  6.009109e+00    1.179208e+02
  6.012225e+00    1.185874e+02
  6.015341e+00    1.192540e+02
  6.018457e+00    1.201158e+02
  6.021573e+00    1.208869e+02
  6.024689e+00    1.216747e+02
  6.027805e+00    1.223005e+02
  6.030921e+00    1.231222e+02
  6.034037e+00    1.242408e+02
  6.037153e+00    1.254048e+02
  6.040269e+00    1.262571e+02
  6.043385e+00    1.273605e+02
  6.046501e+00    1.287933e+02
  6.049617e+00    1.304303e+02
  6.052733e+00    1.321757e+02
  6.055849e+00    1.341189e+02
  6.058965e+00    1.366303e+02
  6.062081e+00    1.396831e+02
  6.065197e+00    1.433887e+02
  6.068313e+00    1.481963e+02
  6.071428e+00    1.545726e+02
  6.074544e+00    1.636171e+02
  6.077660e+00    1.777843e+02
  6.080776e+00    2.008775e+02
  6.083892e+00    2.409718e+02
  6.087008e+00    3.108098e+02
  6.090124e+00    4.333725e+02
  6.093240e+00    6.285883e+02
  6.096356e+00    9.137734e+02
  6.099472e+00    1.259736e+03
  6.102588e+00    1.603793e+03
  6.105704e+00    1.873942e+03
  6.108820e+00    2.012410e+03
  6.111936e+00    2.015789e+03
  6.115052e+00    1.902936e+03
  6.118168e+00    1.706536e+03
  6.121284e+00    1.456433e+03
  6.124400e+00    1.174708e+03
  6.127516e+00    8.961598e+02
  6.130632e+00    6.485637e+02
  6.133747e+00    4.618615e+02
  6.136863e+00    3.335889e+02
  6.139979e+00    2.568443e+02
  6.143095e+00    2.116800e+02
  6.146211e+00    1.858002e+02
  6.149327e+00    1.698605e+02
  6.152443e+00    1.597840e+02
  6.155559e+00    1.528157e+02
  6.158675e+00    1.476439e+02
  6.161791e+00    1.434959e+02
  6.164907e+00    1.401333e+02
  6.168023e+00    1.375169e+02
  6.171139e+00    1.356716e+02
  6.174255e+00    1.339685e+02
  6.177371e+00    1.325568e+02
  6.180487e+00    1.313320e+02
  6.183603e+00    1.303391e+02
  6.186719e+00    1.293042e+02
  6.189835e+00    1.285363e+02
  6.192951e+00    1.279250e+02
  6.196066e+00    1.272024e+02
  6.199182e+00    1.266234e+02
  6.202298e+00    1.260215e+02
  6.205414e+00    1.253254e+02
  6.208530e+00    1.246802e+02
  6.211646e+00    1.243815e+02
  6.214762e+00    1.241081e+02
  6.217878e+00    1.243178e+02
  6.220994e+00    1.245749e+02
  6.224110e+00    1.248045e+02
  6.227226e+00    1.248581e+02
  6.230342e+00    1.248246e+02
  6.233458e+00    1.245395e+02
  6.236574e+00    1.237298e+02
  6.239690e+00    1.229607e+02
  6.242806e+00    1.221609e+02
  6.245922e+00    1.213964e+02
  6.249038e+00    1.207962e+02
  6.252154e+00    1.204436e+02
  6.255270e+00    1.203159e+02
  6.258385e+00    1.202522e+02
  6.261501e+00    1.201596e+02
  6.264617e+00    1.200339e+02
  6.267733e+00    1.199645e+02
  6.270849e+00    1.198030e+02
  6.273965e+00    1.196856e+02
  6.277081e+00    1.196569e+02
  6.280197e+00    1.196386e+02
  6.283313e+00    1.197203e+02
  6.286429e+00    1.201151e+02
  6.289545e+00    1.203633e+02
  6.292661e+00    1.205306e+02
  6.295777e+00    1.206729e+02
  6.298893e+00    1.206427e+02
  6.302009e+00    1.207844e+02
  6.305125e+00    1.208529e+02
  6.308241e+00    1.212516e+02
  6.311357e+00    1.214962e+02
  6.314473e+00    1.216851e+02
  6.317589e+00    1.217646e+02
  6.320704e+00    1.222076e+02
  6.323820e+00    1.229838e+02
  6.326936e+00    1.240264e+02
  6.330052e+00    1.248596e+02
  6.333168e+00    1.263551e+02
  6.336284e+00    1.286081e+02
  6.339400e+00    1.321117e+02
  6.342516e+00    1.374359e+02
  6.345632e+00    1.462014e+02
  6.348748e+00    1.598418e+02
  6.351864e+00    1.811118e+02
  6.354980e+00    2.130701e+02
  6.358096e+00    2.551830e+02
  6.361212e+00    3.003985e+02
  6.364328e+00    3.411893e+02
  6.367444e+00    3.666893e+02
  6.370560e+00    3.740092e+02
  6.373676e+00    3.653942e+02
  6.376792e+00    3.470680e+02
  6.379908e+00    3.229926e+02
  6.383023e+00    2.935480e+02
  6.386139e+00    2.590526e+02
  6.389255e+00    2.225854e+02
  6.392371e+00    1.908805e+02
  6.395487e+00    1.665733e+02
  6.398603e+00    1.509932e+02
  6.401719e+00    1.416065e+02
  6.404835e+00    1.359432e+02
  6.407951e+00    1.327281e+02
  6.411067e+00    1.320443e+02
  6.414183e+00    1.318102e+02
  6.417299e+00    1.321029e+02
  6.420415e+00    1.326611e+02
  6.423531e+00    1.334905e+02
  6.426647e+00    1.343932e+02
  6.429763e+00    1.352202e+02
  6.432879e+00    1.363092e+02
  6.435995e+00    1.374330e+02
  6.439111e+00    1.387487e+02
  6.442227e+00    1.399486e+02
  6.445342e+00    1.413685e+02
  6.448458e+00    1.428660e+02
  6.451574e+00    1.447392e+02
  6.454690e+00    1.466763e+02
  6.457806e+00    1.486505e+02
  6.460922e+00    1.506857e+02
  6.464038e+00    1.530901e+02
  6.467154e+00    1.558166e+02
  6.470270e+00    1.591309e+02
  6.473386e+00    1.630517e+02
  6.476502e+00    1.679174e+02
  6.479618e+00    1.743318e+02
  6.482734e+00    1.833123e+02
  6.485850e+00    1.962923e+02
  6.488966e+00    2.160734e+02
  6.492082e+00    2.473491e+02
  6.495198e+00    2.995936e+02
  6.498314e+00    3.861998e+02
  6.501430e+00    5.283218e+02
  6.504546e+00    7.438657e+02
  6.507661e+00    1.038020e+03
  6.510777e+00    1.384104e+03
  6.513893e+00    1.722490e+03
  6.517009e+00    1.980738e+03
  6.520125e+00    2.117261e+03
  6.523241e+00    2.130044e+03
  6.526357e+00    2.043430e+03
  6.529473e+00    1.884058e+03
  6.532589e+00    1.659120e+03
  6.535705e+00    1.385199e+03
  6.538821e+00    1.088886e+03
  6.541937e+00    8.128657e+02
  6.545053e+00    5.924077e+02
  6.548169e+00    4.368730e+02
  6.551285e+00    3.391646e+02
  6.554401e+00    2.819911e+02
  6.557517e+00    2.496983e+02
  6.560633e+00    2.319774e+02
  6.563749e+00    2.235282e+02
  6.566865e+00    2.216533e+02
  6.569980e+00    2.260296e+02
  6.573096e+00    2.382047e+02
  6.576212e+00    2.622925e+02
  6.579328e+00    3.048566e+02
  6.582444e+00    3.769411e+02
  6.585560e+00    4.919178e+02
  6.588676e+00    6.608398e+02
  6.591792e+00    8.787250e+02
  6.594908e+00    1.113037e+03
  6.598024e+00    1.315784e+03
  6.601140e+00    1.434829e+03
  6.604256e+00    1.456396e+03
  6.607372e+00    1.405600e+03
  6.610488e+00    1.324052e+03
  6.613604e+00    1.219824e+03
  6.616720e+00    1.090274e+03
  6.619836e+00    9.367399e+02
  6.622952e+00    7.839031e+02
  6.626068e+00    6.754773e+02
  6.629184e+00    6.433327e+02
  6.632299e+00    6.941543e+02
  6.635415e+00    7.985131e+02
  6.638531e+00    8.955298e+02
  6.641647e+00    9.276979e+02
  6.644763e+00    8.699651e+02
  6.647879e+00    7.394646e+02
  6.650995e+00    5.750571e+02
  6.654111e+00    4.190128e+02
  6.657227e+00    2.980140e+02
  6.660343e+00    2.236308e+02
  6.663459e+00    1.839254e+02
  6.666575e+00    1.655151e+02
  6.669691e+00    1.555159e+02
  6.672807e+00    1.498521e+02
  6.675923e+00    1.460979e+02
  6.679039e+00    1.431069e+02
  6.682155e+00    1.404868e+02
  6.685271e+00    1.384421e+02
  6.688387e+00    1.364856e+02
  6.691503e+00    1.347458e+02
  6.694618e+00    1.330677e+02
  6.697734e+00    1.317822e+02
  6.700850e+00    1.306895e+02
  6.703966e+00    1.295122e+02
  6.707082e+00    1.284452e+02
  6.710198e+00    1.273170e+02
  6.713314e+00    1.261706e+02
  6.716430e+00    1.249537e+02
  6.719546e+00    1.239415e+02
  6.722662e+00    1.230212e+02
  6.725778e+00    1.222654e+02
  6.728894e+00    1.214828e+02
  6.732010e+00    1.209420e+02
  6.735126e+00    1.205477e+02
  6.738242e+00    1.199684e+02
  6.741358e+00    1.194471e+02
  6.744474e+00    1.189999e+02
  6.747590e+00    1.185733e+02
  6.750706e+00    1.179595e+02
  6.753822e+00    1.176350e+02
  6.756937e+00    1.173115e+02
  6.760053e+00    1.169519e+02
  6.763169e+00    1.165500e+02
  6.766285e+00    1.159940e+02
  6.769401e+00    1.153942e+02
  6.772517e+00    1.148431e+02
  6.775633e+00    1.147363e+02
  6.778749e+00    1.141535e+02
  6.781865e+00    1.137026e+02
  6.784981e+00    1.133151e+02
  6.788097e+00    1.132233e+02
  6.791213e+00    1.128414e+02
  6.794329e+00    1.126167e+02
  6.797445e+00    1.125740e+02
  6.800561e+00    1.125473e+02
  6.803677e+00    1.120663e+02
  6.806793e+00    1.115079e+02
  6.809909e+00    1.110860e+02
  6.813025e+00    1.109293e+02
  6.816141e+00    1.109003e+02
  6.819256e+00    1.108596e+02
  6.822372e+00    1.106733e+02
  6.825488e+00    1.102921e+02
  6.828604e+00    1.099647e+02
  6.831720e+00    1.098686e+02
  6.834836e+00    1.097836e+02
  6.837952e+00    1.096356e+02
  6.841068e+00    1.094042e+02
  6.844184e+00    1.092922e+02
  6.847300e+00    1.092478e+02
  6.850416e+00    1.091793e+02
  6.853532e+00    1.091381e+02
  6.856648e+00    1.090540e+02
  6.859764e+00    1.088497e+02
  6.862880e+00    1.084618e+02
  6.865996e+00    1.084767e+02
  6.869112e+00    1.086098e+02
  6.872228e+00    1.088367e+02
  6.875344e+00    1.085965e+02
  6.878460e+00    1.084095e+02
  6.881575e+00    1.084664e+02
  6.884691e+00    1.087512e+02
  6.887807e+00    1.089087e+02
  6.890923e+00    1.089906e+02
  6.894039e+00    1.091027e+02
  6.897155e+00    1.094150e+02
  6.900271e+00    1.096407e+02
  6.903387e+00    1.101525e+02
  6.906503e+00    1.112199e+02
  6.909619e+00    1.132781e+02
  6.912735e+00    1.167122e+02
  6.915851e+00    1.232559e+02
  6.918967e+00    1.352748e+02
  6.922083e+00    1.555859e+02
  6.925199e+00    1.860580e+02
  6.928315e+00    2.262395e+02
  6.931431e+00    2.718170e+02
  6.934547e+00    3.148803e+02
  6.937663e+00    3.478504e+02
  6.940779e+00    3.682750e+02
  6.943894e+00    3.716954e+02
  6.947010e+00    3.591670e+02
  6.950126e+00    3.387663e+02
  6.953242e+00    3.165591e+02
  6.956358e+00    2.954349e+02
  6.959474e+00    2.728242e+02
  6.962590e+00    2.487797e+02
  6.965706e+00    2.232773e+02
  6.968822e+00    1.976145e+02
  6.971938e+00    1.737548e+02
  6.975054e+00    1.532722e+02
  6.978170e+00    1.374977e+02
  6.981286e+00    1.265851e+02
  6.984402e+00    1.192677e+02
  6.987518e+00    1.146079e+02
  6.990634e+00    1.112230e+02
  6.993750e+00    1.089729e+02
  6.996866e+00    1.073234e+02
  6.999982e+00    1.062104e+02
  7.003097e+00    1.052929e+02
  7.006213e+00    1.047873e+02
  7.009329e+00    1.043906e+02
  7.012445e+00    1.038444e+02
  7.015561e+00    1.031447e+02
  7.018677e+00    1.025409e+02
  7.021793e+00    1.022745e+02
  7.024909e+00    1.019196e+02
  7.028025e+00    1.016274e+02
  7.031141e+00    1.012803e+02
  7.034257e+00    1.011195e+02
  7.037373e+00    1.008652e+02
  7.040489e+00    1.003672e+02
  7.043605e+00    9.999652e+01
  7.046721e+00    9.976529e+01
  7.049837e+00    9.970461e+01
  7.052953e+00    9.983525e+01
  7.056069e+00    1.000372e+02
  7.059185e+00    9.991080e+01
  7.062301e+00    9.960766e+01
  7.065416e+00    9.916319e+01
  7.068532e+00    9.899503e+01
  7.071648e+00    9.869101e+01
  7.074764e+00    9.891571e+01
  7.077880e+00    9.880910e+01
  7.080996e+00    9.906358e+01
  7.084112e+00    9.899994e+01
  7.087228e+00    9.907064e+01
  7.090344e+00    9.871064e+01
  7.093460e+00    9.848679e+01
  7.096576e+00    9.831280e+01
  7.099692e+00    9.827509e+01
  7.102808e+00    9.817989e+01
  7.105924e+00    9.818734e+01
  7.109040e+00    9.809357e+01
  7.112156e+00    9.782613e+01
  7.115272e+00    9.752282e+01
  7.118388e+00    9.730450e+01
  7.121504e+00    9.746369e+01
  7.124620e+00    9.763059e+01
  7.127735e+00    9.760608e+01
  7.130851e+00    9.744434e+01
  7.133967e+00    9.724188e+01
  7.137083e+00    9.712646e+01
  7.140199e+00    9.693277e+01
  7.143315e+00    9.699017e+01
  7.146431e+00    9.714162e+01
  7.149547e+00    9.703799e+01
  7.152663e+00    9.687624e+01
  7.155779e+00    9.695286e+01
  7.158895e+00    9.735492e+01
  7.162011e+00    9.750639e+01
  7.165127e+00    9.748739e+01
  7.168243e+00    9.713994e+01
  7.171359e+00    9.709174e+01
  7.174475e+00    9.720663e+01
  7.177591e+00    9.768124e+01
  7.180707e+00    9.796353e+01
  7.183823e+00    9.835072e+01
  7.186939e+00    9.870814e+01
  7.190054e+00    9.881100e+01
  7.193170e+00    9.890028e+01
  7.196286e+00    9.929663e+01
  7.199402e+00    9.960751e+01
  7.202518e+00    9.995994e+01
  7.205634e+00    1.002571e+02
  7.208750e+00    1.007131e+02
  7.211866e+00    1.012845e+02
  7.214982e+00    1.020498e+02
  7.218098e+00    1.032778e+02
  7.221214e+00    1.050271e+02
  7.224330e+00    1.079954e+02
  7.227446e+00    1.124289e+02
  7.230562e+00    1.192135e+02
  7.233678e+00    1.306275e+02
  7.236794e+00    1.490231e+02
  7.239910e+00    1.769793e+02
  7.243026e+00    2.157400e+02
  7.246142e+00    2.635582e+02
  7.249258e+00    3.133180e+02
  7.252373e+00    3.551895e+02
  7.255489e+00    3.802427e+02
  7.258605e+00    3.853891e+02
  7.261721e+00    3.760306e+02
  7.264837e+00    3.597104e+02
  7.267953e+00    3.400146e+02
  7.271069e+00    3.156487e+02
  7.274185e+00    2.844488e+02
  7.277301e+00    2.469140e+02
  7.280417e+00    2.082626e+02
  7.283533e+00    1.730974e+02
  7.286649e+00    1.459277e+02
  7.289765e+00    1.270496e+02
  7.292881e+00    1.152226e+02
  7.295997e+00    1.080029e+02
  7.299113e+00    1.040404e+02
  7.302229e+00    1.014045e+02
  7.305345e+00    9.974970e+01
  7.308461e+00    9.852069e+01
  7.311577e+00    9.749474e+01
  7.314692e+00    9.675528e+01
  7.317808e+00    9.619170e+01
  7.320924e+00    9.579655e+01
  7.324040e+00    9.513132e+01
  7.327156e+00    9.447673e+01
  7.330272e+00    9.399832e+01
  7.333388e+00    9.368493e+01
  7.336504e+00    9.334168e+01
  7.339620e+00    9.312312e+01
  7.342736e+00    9.312413e+01
  7.345852e+00    9.281771e+01
  7.348968e+00    9.250672e+01
  7.352084e+00    9.177188e+01
  7.355200e+00    9.157448e+01
  7.358316e+00    9.138038e+01
  7.361432e+00    9.115938e+01
  7.364548e+00    9.069521e+01
  7.367664e+00    9.038702e+01
  7.370780e+00    9.005874e+01
  7.373896e+00    8.989686e+01
  7.377011e+00    8.967957e+01
  7.380127e+00    8.945334e+01
  7.383243e+00    8.939887e+01
  7.386359e+00    8.950280e+01
  7.389475e+00    8.942508e+01
  7.392591e+00    8.947839e+01
  7.395707e+00    8.954041e+01
  7.398823e+00    8.957468e+01
  7.401939e+00    8.943504e+01
  7.405055e+00    8.905911e+01
  7.408171e+00    8.887245e+01
  7.411287e+00    8.865041e+01
  7.414403e+00    8.869370e+01
  7.417519e+00    8.888182e+01
  7.420635e+00    8.871282e+01
  7.423751e+00    8.854268e+01
  7.426867e+00    8.831134e+01
  7.429983e+00    8.824982e+01
  7.433099e+00    8.809647e+01
  7.436215e+00    8.792593e+01
  7.439330e+00    8.796655e+01
  7.442446e+00    8.788879e+01
  7.445562e+00    8.758885e+01
  7.448678e+00    8.732530e+01
  7.451794e+00    8.723698e+01
  7.454910e+00    8.734248e+01
  7.458026e+00    8.751562e+01
  7.461142e+00    8.757784e+01
  7.464258e+00    8.740953e+01
  7.467374e+00    8.723797e+01
  7.470490e+00    8.743173e+01
  7.473606e+00    8.769742e+01
  7.476722e+00    8.744633e+01
  7.479838e+00    8.721682e+01
  7.482954e+00    8.716270e+01
  7.486070e+00    8.715363e+01
  7.489186e+00    8.717650e+01
  7.492302e+00    8.723923e+01
  7.495418e+00    8.705498e+01
  7.498534e+00    8.709721e+01
  7.501649e+00    8.742148e+01
  7.504765e+00    8.795693e+01
  7.507881e+00    8.795267e+01
  7.510997e+00    8.808599e+01
  7.514113e+00    8.811306e+01
  7.517229e+00    8.809696e+01
  7.520345e+00    8.800674e+01
  7.523461e+00    8.791830e+01
  7.526577e+00    8.787894e+01
  7.529693e+00    8.784774e+01
  7.532809e+00    8.790784e+01
  7.535925e+00    8.799126e+01
  7.539041e+00    8.792213e+01
  7.542157e+00    8.800677e+01
  7.545273e+00    8.771760e+01
  7.548389e+00    8.761491e+01
  7.551505e+00    8.786290e+01
  7.554621e+00    8.824786e+01
  7.557737e+00    8.847819e+01
  7.560853e+00    8.859975e+01
  7.563968e+00    8.867042e+01
  7.567084e+00    8.866688e+01
  7.570200e+00    8.866562e+01
  7.573316e+00    8.892569e+01
  7.576432e+00    8.931583e+01
  7.579548e+00    8.939603e+01
  7.582664e+00    8.954496e+01
  7.585780e+00    8.958907e+01
  7.588896e+00    9.006594e+01
  7.592012e+00    9.068706e+01
  7.595128e+00    9.141617e+01
  7.598244e+00    9.184925e+01
  7.601360e+00    9.207845e+01
  7.604476e+00    9.245189e+01
  7.607592e+00    9.326770e+01
  7.610708e+00    9.452134e+01
  7.613824e+00    9.657876e+01
  7.616940e+00    9.960391e+01
  7.620056e+00    1.040501e+02
  7.623172e+00    1.109375e+02
  7.626287e+00    1.222911e+02
  7.629403e+00    1.393798e+02
  7.632519e+00    1.638658e+02
  7.635635e+00    1.962372e+02
  7.638751e+00    2.356365e+02
  7.641867e+00    2.780060e+02
  7.644983e+00    3.184411e+02
  7.648099e+00    3.509274e+02
  7.651215e+00    3.696095e+02
  7.654331e+00    3.726175e+02
  7.657447e+00    3.579864e+02
  7.660563e+00    3.295682e+02
  7.663679e+00    2.891322e+02
  7.666795e+00    2.439218e+02
  7.669911e+00    2.014274e+02
  7.673027e+00    1.668811e+02
  7.676143e+00    1.416985e+02
  7.679259e+00    1.240430e+02
  7.682375e+00    1.125140e+02
  7.685491e+00    1.052730e+02
  7.688606e+00    1.003832e+02
  7.691722e+00    9.699341e+01
  7.694838e+00    9.496572e+01
  7.697954e+00    9.386577e+01
  7.701070e+00    9.293999e+01
  7.704186e+00    9.214801e+01
  7.707302e+00    9.137177e+01
  7.710418e+00    9.090162e+01
  7.713534e+00    9.020827e+01
  7.716650e+00    8.988741e+01
  7.719766e+00    8.949806e+01
  7.722882e+00    8.908813e+01
  7.725998e+00    8.864622e+01
  7.729114e+00    8.815393e+01
  7.732230e+00    8.791506e+01
  7.735346e+00    8.761306e+01
  7.738462e+00    8.778461e+01
  7.741578e+00    8.773819e+01
  7.744694e+00    8.749133e+01
  7.747810e+00    8.711760e+01
  7.750925e+00    8.705090e+01
  7.754041e+00    8.727802e+01
  7.757157e+00    8.732034e+01
  7.760273e+00    8.736240e+01
  7.763389e+00    8.681648e+01
  7.766505e+00    8.670290e+01
  7.769621e+00    8.659758e+01
  7.772737e+00    8.679459e+01
  7.775853e+00    8.671628e+01
  7.778969e+00    8.623521e+01
  7.782085e+00    8.598141e+01
  7.785201e+00    8.617574e+01
  7.788317e+00    8.673384e+01
  7.791433e+00    8.705819e+01
  7.794549e+00    8.697255e+01
  7.797665e+00    8.675526e+01
  7.800781e+00    8.621754e+01
  7.803897e+00    8.525202e+01
  7.807013e+00    8.507695e+01
  7.810129e+00    8.510935e+01
  7.813244e+00    8.590864e+01
  7.816360e+00    8.573219e+01
  7.819476e+00    8.572718e+01
  7.822592e+00    8.578780e+01
  7.825708e+00    8.579450e+01
  7.828824e+00    8.551342e+01
  7.831940e+00    8.531399e+01
  7.835056e+00    8.522899e+01
  7.838172e+00    8.529868e+01
  7.841288e+00    8.542049e+01
  7.844404e+00    8.581955e+01
  7.847520e+00    8.584180e+01
  7.850636e+00    8.577451e+01
  7.853752e+00    8.524543e+01
  7.856868e+00    8.522189e+01
  7.859984e+00    8.512840e+01
  7.863100e+00    8.531008e+01
  7.866216e+00    8.553566e+01
  7.869332e+00    8.583290e+01
  7.872448e+00    8.590376e+01
  7.875563e+00    8.606602e+01
  7.878679e+00    8.591989e+01
  7.881795e+00    8.585740e+01
  7.884911e+00    8.550517e+01
  7.888027e+00    8.536106e+01
  7.891143e+00    8.540952e+01
  7.894259e+00    8.544726e+01
  7.897375e+00    8.550220e+01
  7.900491e+00    8.558962e+01
  7.903607e+00    8.585007e+01
  7.906723e+00    8.619785e+01
  7.909839e+00    8.627339e+01
  7.912955e+00    8.620370e+01
  7.916071e+00    8.602654e+01
  7.919187e+00    8.599297e+01
  7.922303e+00    8.622602e+01
  7.925419e+00    8.644255e+01
  7.928535e+00    8.660191e+01
  7.931651e+00    8.659733e+01
  7.934767e+00    8.673256e+01
  7.937882e+00    8.682650e+01
  7.940998e+00    8.688991e+01
  7.944114e+00    8.681370e+01
  7.947230e+00    8.712615e+01
  7.950346e+00    8.737354e+01
  7.953462e+00    8.770848e+01
  7.956578e+00    8.783829e+01
  7.959694e+00    8.818938e+01
  7.962810e+00    8.872221e+01
  7.965926e+00    8.944672e+01
  7.969042e+00    9.041354e+01
  7.972158e+00    9.185502e+01
  7.975274e+00    9.388126e+01
  7.978390e+00    9.722742e+01
  7.981506e+00    1.015043e+02
  7.984622e+00    1.078203e+02
  7.987738e+00    1.153660e+02
  7.990854e+00    1.228831e+02
  7.993970e+00    1.300823e+02
  7.997086e+00    1.368496e+02
  8.000201e+00    1.431404e+02
  8.003317e+00    1.487061e+02
  8.006433e+00    1.524899e+02
  8.009549e+00    1.546385e+02
  8.012665e+00    1.540957e+02
  8.015781e+00    1.498277e+02
  8.018897e+00    1.399360e+02
  8.022013e+00    1.278162e+02
  8.025129e+00    1.155888e+02
  8.028245e+00    1.057234e+02
  8.031361e+00    9.892331e+01
  8.034477e+00    9.460541e+01
  8.037593e+00    9.230601e+01
  8.040709e+00    9.130336e+01
  8.043825e+00    9.063406e+01
  8.046941e+00    9.037073e+01
  8.050057e+00    9.028639e+01
  8.053173e+00    9.020762e+01
  8.056289e+00    8.993076e+01
  8.059405e+00    8.962529e+01
  8.062520e+00    8.918042e+01
  8.065636e+00    8.913329e+01
  8.068752e+00    8.888197e+01
  8.071868e+00    8.862275e+01
  8.074984e+00    8.838022e+01
  8.078100e+00    8.880927e+01
  8.081216e+00    8.945216e+01
  8.084332e+00    8.976631e+01
  8.087448e+00    8.952012e+01
  8.090564e+00    8.931352e+01
  8.093680e+00    8.937228e+01
  8.096796e+00    8.951337e+01
  8.099912e+00    8.972465e+01
  8.103028e+00    8.993585e+01
  8.106144e+00    9.028960e+01
  8.109260e+00    8.988158e+01
  8.112376e+00    8.992567e+01
  8.115492e+00    9.021460e+01
  8.118608e+00    9.037842e+01
  8.121724e+00    9.027139e+01
  8.124839e+00    9.072449e+01
  8.127955e+00    9.092356e+01
  8.131071e+00    9.106359e+01
  8.134187e+00    9.092250e+01
  8.137303e+00    9.117142e+01
  8.140419e+00    9.125397e+01
  8.143535e+00    9.143791e+01
  8.146651e+00    9.197534e+01
  8.149767e+00    9.256815e+01
  8.152883e+00    9.333084e+01
  8.155999e+00    9.366639e+01
  8.159115e+00    9.386266e+01
  8.162231e+00    9.418047e+01
  8.165347e+00    9.461134e+01
  8.168463e+00    9.512372e+01
  8.171579e+00    9.561674e+01
  8.174695e+00    9.631727e+01
  8.177811e+00    9.705806e+01
  8.180927e+00    9.786351e+01
  8.184043e+00    9.886752e+01
  8.187158e+00    9.998050e+01
  8.190274e+00    1.014445e+02
  8.193390e+00    1.035664e+02
  8.196506e+00    1.062713e+02
  8.199622e+00    1.101936e+02
  8.202738e+00    1.158973e+02
  8.205854e+00    1.250106e+02
  8.208970e+00    1.391334e+02
  8.212086e+00    1.611195e+02
  8.215202e+00    1.960662e+02
  8.218318e+00    2.444982e+02
  8.221434e+00    3.049212e+02
  8.224550e+00    3.731093e+02
  8.227666e+00    4.377348e+02
  8.230782e+00    4.853561e+02
  8.233898e+00    5.114901e+02
  8.237014e+00    5.152723e+02
  8.240130e+00    5.037920e+02
  8.243246e+00    4.854958e+02
  8.246362e+00    4.619509e+02
  8.249477e+00    4.315858e+02
  8.252593e+00    3.936453e+02
  8.255709e+00    3.465115e+02
  8.258825e+00    2.940129e+02
  8.261941e+00    2.449556e+02
  8.265057e+00    2.021537e+02
  8.268173e+00    1.684581e+02
  8.271289e+00    1.450159e+02
  8.274405e+00    1.298966e+02
  8.277521e+00    1.199129e+02
  8.280637e+00    1.134151e+02
  8.283753e+00    1.089806e+02
  8.286869e+00    1.060436e+02
  8.289985e+00    1.040707e+02
  8.293101e+00    1.028745e+02
  8.296217e+00    1.016607e+02
  8.299333e+00    1.005056e+02
  8.302449e+00    9.946722e+01
  8.305565e+00    9.909602e+01
  8.308681e+00    9.889098e+01
  8.311796e+00    9.842362e+01
  8.314912e+00    9.749310e+01
  8.318028e+00    9.678521e+01
  8.321144e+00    9.688509e+01
  8.324260e+00    9.687654e+01
  8.327376e+00    9.643839e+01
  8.330492e+00    9.602142e+01
  8.333608e+00    9.618088e+01
  8.336724e+00    9.654806e+01
  8.339840e+00    9.660516e+01
  8.342956e+00    9.674607e+01
  8.346072e+00    9.673059e+01
  8.349188e+00    9.683131e+01
  8.352304e+00    9.673290e+01
  8.355420e+00    9.652316e+01
  8.358536e+00    9.639708e+01
  8.361652e+00    9.642281e+01
  8.364768e+00    9.655446e+01
  8.367884e+00    9.640972e+01
  8.371000e+00    9.615871e+01
  8.374115e+00    9.633849e+01
  8.377231e+00    9.691171e+01
  8.380347e+00    9.762454e+01
  8.383463e+00    9.828735e+01
  8.386579e+00    9.884088e+01
  8.389695e+00    9.925405e+01
  8.392811e+00    9.982513e+01
  8.395927e+00    1.011436e+02
  8.399043e+00    1.028359e+02
  8.402159e+00    1.053473e+02
  8.405275e+00    1.093903e+02
  8.408391e+00    1.153317e+02
  8.411507e+00    1.235176e+02
  8.414623e+00    1.342843e+02
  8.417739e+00    1.479262e+02
  8.420855e+00    1.621089e+02
  8.423971e+00    1.769084e+02
  8.427087e+00    1.897261e+02
  8.430203e+00    1.975211e+02
  8.433319e+00    1.996402e+02
  8.436434e+00    1.979499e+02
  8.439550e+00    1.926339e+02
  8.442666e+00    1.856637e+02
  8.445782e+00    1.766134e+02
  8.448898e+00    1.656909e+02
  8.452014e+00    1.545816e+02
  8.455130e+00    1.433357e+02
  8.458246e+00    1.331203e+02
  8.461362e+00    1.242183e+02
  8.464478e+00    1.169084e+02
  8.467594e+00    1.110947e+02
  8.470710e+00    1.078622e+02
  8.473826e+00    1.059301e+02
  8.476942e+00    1.044984e+02
  8.480058e+00    1.031660e+02
  8.483174e+00    1.025071e+02
  8.486290e+00    1.018570e+02
  8.489406e+00    1.018140e+02
  8.492522e+00    1.019360e+02
  8.495638e+00    1.019643e+02
  8.498753e+00    1.018569e+02
  8.501869e+00    1.015086e+02
  8.504985e+00    1.017084e+02
  8.508101e+00    1.019911e+02
  8.511217e+00    1.024152e+02
  8.514333e+00    1.026693e+02
  8.517449e+00    1.029493e+02
  8.520565e+00    1.031607e+02
  8.523681e+00    1.037612e+02
  8.526797e+00    1.044154e+02
  8.529913e+00    1.046679e+02
  8.533029e+00    1.048933e+02
  8.536145e+00    1.052117e+02
  8.539261e+00    1.061986e+02
  8.542377e+00    1.073327e+02
  8.545493e+00    1.081849e+02
  8.548609e+00    1.090766e+02
  8.551725e+00    1.103536e+02
  8.554841e+00    1.126349e+02
  8.557957e+00    1.145576e+02
  8.561072e+00    1.166448e+02
  8.564188e+00    1.196120e+02
  8.567304e+00    1.236171e+02
  8.570420e+00    1.283649e+02
  8.573536e+00    1.351184e+02
  8.576652e+00    1.450213e+02
  8.579768e+00    1.590418e+02
  8.582884e+00    1.799377e+02
  8.586000e+00    2.127919e+02
  8.589116e+00    2.594503e+02
  8.592232e+00    3.186011e+02
  8.595348e+00    3.962301e+02
  8.598464e+00    4.818167e+02
  8.601580e+00    5.605150e+02
  8.604696e+00    6.267799e+02
  8.607812e+00    6.636193e+02
  8.610928e+00    6.680451e+02
  8.614044e+00    6.487701e+02
  8.617160e+00    6.136937e+02
  8.620276e+00    5.708413e+02
  8.623391e+00    5.264303e+02
  8.626507e+00    4.760167e+02
  8.629623e+00    4.207927e+02
  8.632739e+00    3.644268e+02
  8.635855e+00    3.077266e+02
  8.638971e+00    2.544184e+02
  8.642087e+00    2.122451e+02
  8.645203e+00    1.804616e+02
  8.648319e+00    1.570511e+02
  8.651435e+00    1.420524e+02
  8.654551e+00    1.324281e+02
  8.657667e+00    1.260645e+02
  8.660783e+00    1.217294e+02
  8.663899e+00    1.186262e+02
  8.667015e+00    1.159213e+02
  8.670131e+00    1.132162e+02
  8.673247e+00    1.109583e+02
  8.676363e+00    1.095288e+02
  8.679479e+00    1.090197e+02
  8.682595e+00    1.085830e+02
  8.685710e+00    1.079963e+02
  8.688826e+00    1.072144e+02
  8.691942e+00    1.064346e+02
  8.695058e+00    1.059959e+02
  8.698174e+00    1.058233e+02
  8.701290e+00    1.063475e+02
  8.704406e+00    1.080212e+02
  8.707522e+00    1.109510e+02
  8.710638e+00    1.153185e+02
  8.713754e+00    1.231750e+02
  8.716870e+00    1.352984e+02
  8.719986e+00    1.510572e+02
  8.723102e+00    1.729445e+02
  8.726218e+00    1.948575e+02
  8.729334e+00    2.151327e+02
  8.732450e+00    2.310768e+02
  8.735566e+00    2.388485e+02
  8.738682e+00    2.368027e+02
  8.741798e+00    2.223165e+02
  8.744914e+00    1.977172e+02
  8.748029e+00    1.699428e+02
  8.751145e+00    1.453568e+02
  8.754261e+00    1.263409e+02
  8.757377e+00    1.135490e+02
  8.760493e+00    1.068162e+02
  8.763609e+00    1.033385e+02
  8.766725e+00    1.012015e+02
  8.769841e+00    9.990108e+01
  8.772957e+00    9.936826e+01
  8.776073e+00    9.917297e+01
  8.779189e+00    9.858163e+01
  8.782305e+00    9.825236e+01
  8.785421e+00    9.847835e+01
  8.788537e+00    9.903596e+01
  8.791653e+00    9.883353e+01
  8.794769e+00    9.841991e+01
  8.797885e+00    9.788689e+01
  8.801001e+00    9.762638e+01
  8.804117e+00    9.800375e+01
  8.807233e+00    9.883349e+01
  8.810348e+00    9.831316e+01
  8.813464e+00    9.792715e+01
  8.816580e+00    9.811254e+01
  8.819696e+00    9.944142e+01
  8.822812e+00    1.003268e+02
  8.825928e+00    1.005944e+02
  8.829044e+00    1.006534e+02
  8.832160e+00    1.009298e+02
  8.835276e+00    1.016482e+02
  8.838392e+00    1.032151e+02
  8.841508e+00    1.049390e+02
  8.844624e+00    1.071579e+02
  8.847740e+00    1.107178e+02
  8.850856e+00    1.163891e+02
  8.853972e+00    1.265690e+02
  8.857088e+00    1.402867e+02
  8.860204e+00    1.623687e+02
  8.863320e+00    1.934229e+02
  8.866436e+00    2.339912e+02
  8.869552e+00    2.803914e+02
  8.872667e+00    3.300071e+02
  8.875783e+00    3.694877e+02
  8.878899e+00    3.960812e+02
  8.882015e+00    4.066149e+02
  8.885131e+00    4.037376e+02
  8.888247e+00    3.959614e+02
  8.891363e+00    3.821216e+02
  8.894479e+00    3.639947e+02
  8.897595e+00    3.378703e+02
  8.900711e+00    3.068453e+02
  8.903827e+00    2.692813e+02
  8.906943e+00    2.306839e+02
  8.910059e+00    1.948475e+02
  8.913175e+00    1.633929e+02
  8.916291e+00    1.414763e+02
  8.919407e+00    1.262990e+02
  8.922523e+00    1.160397e+02
  8.925639e+00    1.098470e+02
  8.928755e+00    1.049812e+02
  8.931871e+00    1.013610e+02
  8.934986e+00    9.953246e+01
  8.938102e+00    1.000989e+02
  8.941218e+00    1.023454e+02
  8.944334e+00    1.067669e+02
  8.947450e+00    1.163867e+02
  8.950566e+00    1.290209e+02
  8.953682e+00    1.435077e+02
  8.956798e+00    1.572716e+02
  8.959914e+00    1.693102e+02
  8.963030e+00    1.793721e+02
  8.966146e+00    1.777173e+02
  8.969262e+00    1.661345e+02
  8.972378e+00    1.477311e+02
  8.975494e+00    1.291256e+02
  8.978610e+00    1.139847e+02
  8.981726e+00    1.040302e+02
  8.984842e+00    9.746649e+01
  8.987958e+00    9.288024e+01
  8.991074e+00    9.046597e+01
  8.994190e+00    8.912093e+01
  8.997305e+00    8.889716e+01
  9.000421e+00    8.909942e+01
  9.003537e+00    8.843539e+01
  9.006653e+00    8.712177e+01
  9.009769e+00    8.570530e+01
  9.012885e+00    8.428160e+01
  9.016001e+00    8.400624e+01
  9.019117e+00    8.363950e+01
  9.022233e+00    8.341533e+01
  9.025349e+00    8.225749e+01
  9.028465e+00    8.171835e+01
  9.031581e+00    8.131074e+01
  9.034697e+00    8.048046e+01
  9.037813e+00    7.899542e+01
  9.040929e+00    7.846428e+01
  9.044045e+00    7.839751e+01
  9.047161e+00    7.985339e+01
  9.050277e+00    8.080981e+01
  9.053393e+00    8.120218e+01
  9.056509e+00    8.015923e+01
  9.059624e+00    7.887968e+01
  9.062740e+00    7.889433e+01
  9.065856e+00    7.944664e+01
  9.068972e+00    7.906278e+01
  9.072088e+00    7.722065e+01
  9.075204e+00    7.714707e+01
  9.078320e+00    7.669012e+01
  9.081436e+00    7.693875e+01
  9.084552e+00    7.704747e+01
  9.087668e+00    7.794016e+01
  9.090784e+00    7.866930e+01
  9.093900e+00    7.966860e+01
  9.097016e+00    8.266782e+01
  9.100132e+00    8.620909e+01
  9.103248e+00    9.308988e+01
  9.106364e+00    1.029155e+02
  9.109480e+00    1.167218e+02
  9.112596e+00    1.349564e+02
  9.115712e+00    1.565491e+02
  9.118828e+00    1.709103e+02
  9.121943e+00    1.844942e+02
  9.125059e+00    1.905929e+02
  9.128175e+00    1.852733e+02
  9.131291e+00    1.779679e+02
  9.134407e+00    1.646181e+02
  9.137523e+00    1.573259e+02
  9.140639e+00    1.528744e+02
  9.143755e+00    1.516253e+02
  9.146871e+00    1.458528e+02
  9.149987e+00    1.375545e+02
  9.153103e+00    1.268500e+02
  9.156219e+00    1.121662e+02
  9.159335e+00    9.955373e+01
  9.162451e+00    9.106693e+01
  9.165567e+00    8.178526e+01
  9.168683e+00    7.861937e+01
  9.171799e+00    7.735079e+01
  9.174915e+00    7.553334e+01
  9.178031e+00    7.347420e+01
  9.181147e+00    7.485949e+01
  9.184262e+00    7.644710e+01
  9.187378e+00    7.664082e+01
  9.190494e+00    7.555191e+01
  9.193610e+00    7.649665e+01
  9.196726e+00    7.772147e+01
  9.199842e+00    7.742465e+01
  9.202958e+00    7.806663e+01
  9.206074e+00    7.888783e+01
  9.209190e+00    8.133340e+01
  9.212306e+00    8.030184e+01
  9.215422e+00    7.961543e+01
  9.218538e+00    7.948537e+01
  9.221654e+00    8.081976e+01
  9.224770e+00    8.111764e+01
  9.227886e+00    8.142931e+01
  9.231002e+00    8.350372e+01
  9.234118e+00    8.846481e+01
  9.237234e+00    9.248324e+01
  9.240350e+00    9.686910e+01
  9.243466e+00    1.040991e+02
  9.246581e+00    1.120193e+02
  9.249697e+00    1.213392e+02
  9.252813e+00    1.364485e+02
  9.255929e+00    1.506644e+02
  9.259045e+00    1.617455e+02
  9.262161e+00    1.742821e+02
  9.265277e+00    1.772668e+02
  9.268393e+00    1.742353e+02
  9.271509e+00    1.693278e+02
  9.274625e+00    1.530297e+02
  9.277741e+00    1.424055e+02
  9.280857e+00    1.310296e+02
  9.283973e+00    1.119019e+02
  9.287089e+00    9.137634e+01
  9.290205e+00    7.673491e+01
  9.293321e+00    6.169170e+01
  9.296437e+00    4.337185e+01
  9.299553e+00    3.624673e+01
  9.302669e+00    2.884851e+01
  9.305785e+00    2.014577e+01
  9.308900e+00    1.450867e+01
  9.312016e+00    1.187909e+01
  9.315132e+00    1.037321e+01
  9.318248e+00    7.380052e+00
  9.321364e+00    4.265763e+00
  9.324480e+00    4.322610e-01
  9.327596e+00   -4.265393e+00
  9.330712e+00   -7.819770e+00
  9.333828e+00   -9.296834e+00
  9.336944e+00   -5.187786e+00
  9.340060e+00   -6.553838e-01
  9.343176e+00    8.485951e-01
  9.346292e+00    0.000000e+00
