# == pyFAI calibration ==
# SplineFile: None
# PixelSize: 2.000e-04, 2.000e-04 m
# PONI: 1.995e-01, 2.016e-01 m
# Distance Sample to Detector: 1.79502286468 m
# Rotations: -0.004483 0.004646 0.000019 rad
# 
# == Fit2d calibration ==
# Distance Sample-beamCenter: 1795.060 mm
# Center: x=1048.052, y=1039.198 pix
# Tilt: 0.370 deg  TiltPlanRot: 46.021 deg
# 
# Wavelength: 1.4235e-11
# Polarization factor: None
# Normalization factor: 1.0
# --> /Volumes/desy/desy_2018/TiAlNi/TiAlNi_1-00251.txt
#       2th_deg             I 
  1.557975e-03   -1.047467e+01
  4.673925e-03   -2.666739e+00
  7.789875e-03    7.539927e+00
  1.090582e-02    1.286594e+01
  1.402177e-02    6.277429e+00
  1.713772e-02    2.469544e+00
  2.025367e-02    2.767771e+00
  2.336962e-02    4.907582e+00
  2.648557e-02    4.859821e+00
  2.960152e-02    4.981320e+00
  3.271747e-02    4.343717e+00
  3.583342e-02    3.798832e+00
  3.894937e-02    3.305775e+00
  4.206532e-02    3.835107e+00
  4.518127e-02    3.805837e+00
  4.829722e-02    3.837235e+00
  5.141317e-02    4.043937e+00
  5.452912e-02    3.578620e+00
  5.764507e-02    4.212521e+00
  6.076102e-02    5.608724e+00
  6.387697e-02    4.563235e+00
  6.699292e-02    3.443527e+00
  7.010887e-02    2.868113e+00
  7.322482e-02    3.582024e+00
  7.634077e-02    4.208578e+00
  7.945672e-02    2.943675e+00
  8.257267e-02    3.225896e+00
  8.568862e-02    4.148575e+00
  8.880457e-02    4.168559e+00
  9.192052e-02    3.982928e+00
  9.503647e-02    3.831658e+00
  9.815242e-02    5.173704e+00
  1.012684e-01    5.927993e+00
  1.043843e-01    6.943869e+00
  1.075003e-01    6.026344e+00
  1.106162e-01    4.541860e+00
  1.137322e-01    4.280798e+00
  1.168481e-01    5.484432e+00
  1.199641e-01    5.751556e+00
  1.230800e-01    5.991653e+00
  1.261960e-01    5.126204e+00
  1.293119e-01    6.037466e+00
  1.324279e-01    6.845699e+00
  1.355438e-01    6.629035e+00
  1.386598e-01    5.735130e+00
  1.417757e-01    6.106136e+00
  1.448917e-01    5.828169e+00
  1.480076e-01    6.270432e+00
  1.511236e-01    5.962656e+00
  1.542395e-01    6.377606e+00
  1.573555e-01    7.547194e+00
  1.604714e-01    8.343111e+00
  1.635874e-01    9.748694e+00
  1.667033e-01    1.111383e+01
  1.698193e-01    1.263492e+01
  1.729352e-01    1.401539e+01
  1.760512e-01    1.663270e+01
  1.791671e-01    1.939196e+01
  1.822831e-01    2.320241e+01
  1.853990e-01    2.561353e+01
  1.885150e-01    2.780618e+01
  1.916309e-01    2.911261e+01
  1.947469e-01    3.057722e+01
  1.978628e-01    3.205847e+01
  2.009788e-01    3.353743e+01
  2.040947e-01    3.445756e+01
  2.072107e-01    3.624705e+01
  2.103266e-01    3.897146e+01
  2.134426e-01    4.145055e+01
  2.165585e-01    4.336924e+01
  2.196745e-01    4.537736e+01
  2.227904e-01    4.727330e+01
  2.259064e-01    4.824776e+01
  2.290223e-01    4.953484e+01
  2.321383e-01    5.138696e+01
  2.352542e-01    5.335370e+01
  2.383702e-01    5.541381e+01
  2.414861e-01    5.786048e+01
  2.446021e-01    5.944567e+01
  2.477180e-01    6.128848e+01
  2.508340e-01    5.974136e+01
  2.539499e-01    5.922012e+01
  2.570659e-01    6.195887e+01
  2.601818e-01    6.533401e+01
  2.632978e-01    6.797066e+01
  2.664137e-01    7.054269e+01
  2.695297e-01    7.376223e+01
  2.726456e-01    7.575972e+01
  2.757616e-01    7.787436e+01
  2.788775e-01    8.043157e+01
  2.819935e-01    8.297293e+01
  2.851094e-01    8.450786e+01
  2.882254e-01    8.523444e+01
  2.913413e-01    8.639664e+01
  2.944573e-01    8.727563e+01
  2.975732e-01    8.749905e+01
  3.006892e-01    8.843401e+01
  3.038051e-01    9.009424e+01
  3.069211e-01    9.145982e+01
  3.100370e-01    9.248904e+01
  3.131530e-01    9.375668e+01
  3.162689e-01    9.485970e+01
  3.193849e-01    9.654131e+01
  3.225008e-01    9.831001e+01
  3.256168e-01    1.005165e+02
  3.287327e-01    1.026147e+02
  3.318487e-01    1.042077e+02
  3.349646e-01    1.062963e+02
  3.380806e-01    1.086150e+02
  3.411965e-01    1.093888e+02
  3.443125e-01    1.103815e+02
  3.474284e-01    1.117199e+02
  3.505444e-01    1.137652e+02
  3.536603e-01    1.159130e+02
  3.567763e-01    1.172675e+02
  3.598922e-01    1.185160e+02
  3.630082e-01    1.204620e+02
  3.661241e-01    1.231748e+02
  3.692401e-01    1.252269e+02
  3.723560e-01    1.272775e+02
  3.754720e-01    1.290092e+02
  3.785879e-01    1.303460e+02
  3.817039e-01    1.311430e+02
  3.848198e-01    1.331213e+02
  3.879358e-01    1.343680e+02
  3.910517e-01    1.364135e+02
  3.941677e-01    1.384296e+02
  3.972836e-01    1.400190e+02
  4.003996e-01    1.409519e+02
  4.035155e-01    1.422635e+02
  4.066315e-01    1.435790e+02
  4.097474e-01    1.457864e+02
  4.128634e-01    1.475542e+02
  4.159793e-01    1.492055e+02
  4.190953e-01    1.512645e+02
  4.222112e-01    1.531113e+02
  4.253272e-01    1.558337e+02
  4.284431e-01    1.576552e+02
  4.315591e-01    1.590849e+02
  4.346750e-01    1.610932e+02
  4.377910e-01    1.629612e+02
  4.409069e-01    1.655552e+02
  4.440229e-01    1.678445e+02
  4.471388e-01    1.695950e+02
  4.502548e-01    1.714520e+02
  4.533707e-01    1.736681e+02
  4.564867e-01    1.753683e+02
  4.596026e-01    1.771850e+02
  4.627186e-01    1.793795e+02
  4.658345e-01    1.815202e+02
  4.689505e-01    1.833675e+02
  4.720664e-01    1.861846e+02
  4.751824e-01    1.875632e+02
  4.782983e-01    1.885213e+02
  4.814143e-01    1.900266e+02
  4.845302e-01    1.913248e+02
  4.876462e-01    1.928345e+02
  4.907621e-01    1.934585e+02
  4.938781e-01    1.939136e+02
  4.969940e-01    1.942808e+02
  5.001100e-01    1.946323e+02
  5.032259e-01    1.951969e+02
  5.063419e-01    1.953979e+02
  5.094578e-01    1.950229e+02
  5.125738e-01    1.946384e+02
  5.156897e-01    1.949685e+02
  5.188057e-01    1.944578e+02
  5.219216e-01    1.946954e+02
  5.250376e-01    1.956902e+02
  5.281535e-01    1.966580e+02
  5.312695e-01    1.967754e+02
  5.343854e-01    1.970041e+02
  5.375014e-01    1.976439e+02
  5.406173e-01    1.980408e+02
  5.437333e-01    1.986044e+02
  5.468492e-01    1.999485e+02
  5.499652e-01    2.008479e+02
  5.530811e-01    2.006031e+02
  5.561971e-01    2.003863e+02
  5.593130e-01    2.005835e+02
  5.624290e-01    2.003398e+02
  5.655449e-01    2.002314e+02
  5.686609e-01    1.996945e+02
  5.717768e-01    1.989825e+02
  5.748928e-01    1.988802e+02
  5.780087e-01    1.986885e+02
  5.811247e-01    1.970658e+02
  5.842406e-01    1.962377e+02
  5.873566e-01    1.956521e+02
  5.904725e-01    1.956134e+02
  5.935885e-01    1.955077e+02
  5.967044e-01    1.952704e+02
  5.998204e-01    1.954898e+02
  6.029363e-01    1.953066e+02
  6.060523e-01    1.951868e+02
  6.091682e-01    1.944626e+02
  6.122842e-01    1.946469e+02
  6.154001e-01    1.942115e+02
  6.185161e-01    1.940816e+02
  6.216320e-01    1.939354e+02
  6.247480e-01    1.944802e+02
  6.278639e-01    1.941936e+02
  6.309799e-01    1.943697e+02
  6.340958e-01    1.942789e+02
  6.372118e-01    1.945546e+02
  6.403277e-01    1.944312e+02
  6.434437e-01    1.945594e+02
  6.465596e-01    1.946865e+02
  6.496756e-01    1.943516e+02
  6.527915e-01    1.942742e+02
  6.559075e-01    1.943500e+02
  6.590234e-01    1.944920e+02
  6.621394e-01    1.944243e+02
  6.652553e-01    1.946273e+02
  6.683713e-01    1.948236e+02
  6.714872e-01    1.946378e+02
  6.746032e-01    1.942633e+02
  6.777191e-01    1.937683e+02
  6.808351e-01    1.931951e+02
  6.839510e-01    1.928746e+02
  6.870670e-01    1.926307e+02
  6.901829e-01    1.924926e+02
  6.932989e-01    1.931511e+02
  6.964148e-01    1.924982e+02
  6.995308e-01    1.917392e+02
  7.026467e-01    1.917903e+02
  7.057627e-01    1.921739e+02
  7.088786e-01    1.914057e+02
  7.119946e-01    1.911016e+02
  7.151105e-01    1.911585e+02
  7.182265e-01    1.914326e+02
  7.213424e-01    1.907811e+02
  7.244584e-01    1.904628e+02
  7.275743e-01    1.908306e+02
  7.306903e-01    1.912911e+02
  7.338062e-01    1.910587e+02
  7.369222e-01    1.910149e+02
  7.400381e-01    1.910919e+02
  7.431541e-01    1.902178e+02
  7.462700e-01    1.899479e+02
  7.493860e-01    1.892552e+02
  7.525019e-01    1.889998e+02
  7.556179e-01    1.884535e+02
  7.587338e-01    1.886964e+02
  7.618498e-01    1.880395e+02
  7.649657e-01    1.877626e+02
  7.680817e-01    1.869357e+02
  7.711976e-01    1.871583e+02
  7.743136e-01    1.877241e+02
  7.774295e-01    1.881896e+02
  7.805455e-01    1.876749e+02
  7.836614e-01    1.871846e+02
  7.867774e-01    1.868321e+02
  7.898933e-01    1.866221e+02
  7.930093e-01    1.855569e+02
  7.961252e-01    1.855880e+02
  7.992412e-01    1.851648e+02
  8.023571e-01    1.851936e+02
  8.054731e-01    1.841580e+02
  8.085890e-01    1.835741e+02
  8.117050e-01    1.835016e+02
  8.148209e-01    1.836813e+02
  8.179369e-01    1.830647e+02
  8.210528e-01    1.824332e+02
  8.241688e-01    1.817257e+02
  8.272847e-01    1.813833e+02
  8.304007e-01    1.815130e+02
  8.335166e-01    1.814681e+02
  8.366326e-01    1.807997e+02
  8.397485e-01    1.803042e+02
  8.428645e-01    1.803249e+02
  8.459804e-01    1.806603e+02
  8.490964e-01    1.800539e+02
  8.522123e-01    1.791557e+02
  8.553283e-01    1.783236e+02
  8.584442e-01    1.779306e+02
  8.615602e-01    1.777798e+02
  8.646761e-01    1.780318e+02
  8.677921e-01    1.780669e+02
  8.709080e-01    1.779209e+02
  8.740240e-01    1.767671e+02
  8.771399e-01    1.760889e+02
  8.802559e-01    1.758626e+02
  8.833718e-01    1.760936e+02
  8.864878e-01    1.758933e+02
  8.896037e-01    1.757269e+02
  8.927197e-01    1.751794e+02
  8.958356e-01    1.747877e+02
  8.989516e-01    1.748144e+02
  9.020675e-01    1.744985e+02
  9.051835e-01    1.746844e+02
  9.082994e-01    1.742331e+02
  9.114154e-01    1.741500e+02
  9.145313e-01    1.737828e+02
  9.176473e-01    1.739590e+02
  9.207632e-01    1.731014e+02
  9.238792e-01    1.726501e+02
  9.269951e-01    1.719115e+02
  9.301111e-01    1.716823e+02
  9.332270e-01    1.720027e+02
  9.363430e-01    1.720977e+02
  9.394589e-01    1.713165e+02
  9.425749e-01    1.708286e+02
  9.456908e-01    1.701501e+02
  9.488068e-01    1.695107e+02
  9.519227e-01    1.691746e+02
  9.550387e-01    1.686181e+02
  9.581546e-01    1.684370e+02
  9.612706e-01    1.687619e+02
  9.643865e-01    1.684111e+02
  9.675025e-01    1.680432e+02
  9.706184e-01    1.680208e+02
  9.737344e-01    1.674737e+02
  9.768503e-01    1.665109e+02
  9.799663e-01    1.667265e+02
  9.830822e-01    1.663779e+02
  9.861982e-01    1.663156e+02
  9.893141e-01    1.660476e+02
  9.924301e-01    1.656896e+02
  9.955460e-01    1.649926e+02
  9.986620e-01    1.645328e+02
  1.001778e+00    1.642326e+02
  1.004894e+00    1.637380e+02
  1.008010e+00    1.626880e+02
  1.011126e+00    1.620130e+02
  1.014242e+00    1.618987e+02
  1.017358e+00    1.618145e+02
  1.020474e+00    1.616996e+02
  1.023590e+00    1.612532e+02
  1.026706e+00    1.607481e+02
  1.029821e+00    1.611626e+02
  1.032937e+00    1.610973e+02
  1.036053e+00    1.609764e+02
  1.039169e+00    1.600110e+02
  1.042285e+00    1.595603e+02
  1.045401e+00    1.589351e+02
  1.048517e+00    1.589299e+02
  1.051633e+00    1.589500e+02
  1.054749e+00    1.587075e+02
  1.057865e+00    1.582784e+02
  1.060981e+00    1.581239e+02
  1.064097e+00    1.575624e+02
  1.067213e+00    1.573475e+02
  1.070329e+00    1.572252e+02
  1.073445e+00    1.574515e+02
  1.076561e+00    1.571097e+02
  1.079677e+00    1.575110e+02
  1.082793e+00    1.571370e+02
  1.085909e+00    1.567779e+02
  1.089025e+00    1.563159e+02
  1.092140e+00    1.564705e+02
  1.095256e+00    1.562418e+02
  1.098372e+00    1.558727e+02
  1.101488e+00    1.551742e+02
  1.104604e+00    1.546343e+02
  1.107720e+00    1.542302e+02
  1.110836e+00    1.537526e+02
  1.113952e+00    1.533810e+02
  1.117068e+00    1.534418e+02
  1.120184e+00    1.535226e+02
  1.123300e+00    1.527984e+02
  1.126416e+00    1.519572e+02
  1.129532e+00    1.515545e+02
  1.132648e+00    1.516942e+02
  1.135764e+00    1.515718e+02
  1.138880e+00    1.514816e+02
  1.141996e+00    1.509549e+02
  1.145112e+00    1.507068e+02
  1.148228e+00    1.506088e+02
  1.151344e+00    1.500269e+02
  1.154459e+00    1.494152e+02
  1.157575e+00    1.490948e+02
  1.160691e+00    1.491352e+02
  1.163807e+00    1.486492e+02
  1.166923e+00    1.482681e+02
  1.170039e+00    1.478056e+02
  1.173155e+00    1.477577e+02
  1.176271e+00    1.476540e+02
  1.179387e+00    1.480335e+02
  1.182503e+00    1.482806e+02
  1.185619e+00    1.480803e+02
  1.188735e+00    1.474931e+02
  1.191851e+00    1.471693e+02
  1.194967e+00    1.466540e+02
  1.198083e+00    1.462917e+02
  1.201199e+00    1.458418e+02
  1.204315e+00    1.458360e+02
  1.207431e+00    1.453553e+02
  1.210547e+00    1.453516e+02
  1.213663e+00    1.448768e+02
  1.216778e+00    1.451221e+02
  1.219894e+00    1.452969e+02
  1.223010e+00    1.456397e+02
  1.226126e+00    1.458995e+02
  1.229242e+00    1.457703e+02
  1.232358e+00    1.451581e+02
  1.235474e+00    1.445192e+02
  1.238590e+00    1.443636e+02
  1.241706e+00    1.441874e+02
  1.244822e+00    1.441760e+02
  1.247938e+00    1.436378e+02
  1.251054e+00    1.428252e+02
  1.254170e+00    1.422182e+02
  1.257286e+00    1.424852e+02
  1.260402e+00    1.425435e+02
  1.263518e+00    1.422425e+02
  1.266634e+00    1.420611e+02
  1.269750e+00    1.420675e+02
  1.272866e+00    1.415012e+02
  1.275982e+00    1.405649e+02
  1.279097e+00    1.403448e+02
  1.282213e+00    1.407339e+02
  1.285329e+00    1.409624e+02
  1.288445e+00    1.407800e+02
  1.291561e+00    1.405276e+02
  1.294677e+00    1.405227e+02
  1.297793e+00    1.396582e+02
  1.300909e+00    1.388125e+02
  1.304025e+00    1.381495e+02
  1.307141e+00    1.381781e+02
  1.310257e+00    1.381960e+02
  1.313373e+00    1.379436e+02
  1.316489e+00    1.378343e+02
  1.319605e+00    1.379956e+02
  1.322721e+00    1.378556e+02
  1.325837e+00    1.376307e+02
  1.328953e+00    1.376914e+02
  1.332069e+00    1.373841e+02
  1.335185e+00    1.369641e+02
  1.338301e+00    1.368022e+02
  1.341416e+00    1.369081e+02
  1.344532e+00    1.368489e+02
  1.347648e+00    1.365034e+02
  1.350764e+00    1.358746e+02
  1.353880e+00    1.354419e+02
  1.356996e+00    1.350637e+02
  1.360112e+00    1.348382e+02
  1.363228e+00    1.348853e+02
  1.366344e+00    1.356327e+02
  1.369460e+00    1.358147e+02
  1.372576e+00    1.353045e+02
  1.375692e+00    1.345999e+02
  1.378808e+00    1.346197e+02
  1.381924e+00    1.345421e+02
  1.385040e+00    1.340270e+02
  1.388156e+00    1.336331e+02
  1.391272e+00    1.334759e+02
  1.394388e+00    1.335431e+02
  1.397504e+00    1.335441e+02
  1.400619e+00    1.333716e+02
  1.403735e+00    1.327635e+02
  1.406851e+00    1.323278e+02
  1.409967e+00    1.323801e+02
  1.413083e+00    1.322224e+02
  1.416199e+00    1.320771e+02
  1.419315e+00    1.317327e+02
  1.422431e+00    1.315187e+02
  1.425547e+00    1.312492e+02
  1.428663e+00    1.312639e+02
  1.431779e+00    1.311859e+02
  1.434895e+00    1.313338e+02
  1.438011e+00    1.307688e+02
  1.441127e+00    1.307750e+02
  1.444243e+00    1.308230e+02
  1.447359e+00    1.308733e+02
  1.450475e+00    1.306158e+02
  1.453591e+00    1.303164e+02
  1.456707e+00    1.301189e+02
  1.459823e+00    1.299401e+02
  1.462938e+00    1.297826e+02
  1.466054e+00    1.291280e+02
  1.469170e+00    1.286628e+02
  1.472286e+00    1.285460e+02
  1.475402e+00    1.286088e+02
  1.478518e+00    1.290773e+02
  1.481634e+00    1.292261e+02
  1.484750e+00    1.291602e+02
  1.487866e+00    1.287535e+02
  1.490982e+00    1.287052e+02
  1.494098e+00    1.286408e+02
  1.497214e+00    1.290122e+02
  1.500330e+00    1.290518e+02
  1.503446e+00    1.287778e+02
  1.506562e+00    1.279384e+02
  1.509678e+00    1.273269e+02
  1.512794e+00    1.272089e+02
  1.515910e+00    1.270169e+02
  1.519026e+00    1.270563e+02
  1.522142e+00    1.272736e+02
  1.525257e+00    1.273042e+02
  1.528373e+00    1.269060e+02
  1.531489e+00    1.264200e+02
  1.534605e+00    1.261144e+02
  1.537721e+00    1.261574e+02
  1.540837e+00    1.259537e+02
  1.543953e+00    1.257175e+02
  1.547069e+00    1.258198e+02
  1.550185e+00    1.257531e+02
  1.553301e+00    1.258936e+02
  1.556417e+00    1.257298e+02
  1.559533e+00    1.257140e+02
  1.562649e+00    1.253243e+02
  1.565765e+00    1.254431e+02
  1.568881e+00    1.257609e+02
  1.571997e+00    1.265860e+02
  1.575113e+00    1.279373e+02
  1.578229e+00    1.299083e+02
  1.581345e+00    1.317850e+02
  1.584461e+00    1.331548e+02
  1.587576e+00    1.333268e+02
  1.590692e+00    1.314605e+02
  1.593808e+00    1.287328e+02
  1.596924e+00    1.267721e+02
  1.600040e+00    1.250210e+02
  1.603156e+00    1.247140e+02
  1.606272e+00    1.246067e+02
  1.609388e+00    1.243178e+02
  1.612504e+00    1.236225e+02
  1.615620e+00    1.230578e+02
  1.618736e+00    1.226566e+02
  1.621852e+00    1.222695e+02
  1.624968e+00    1.222361e+02
  1.628084e+00    1.225783e+02
  1.631200e+00    1.227943e+02
  1.634316e+00    1.227610e+02
  1.637432e+00    1.227665e+02
  1.640548e+00    1.227252e+02
  1.643664e+00    1.219971e+02
  1.646780e+00    1.216445e+02
  1.649895e+00    1.216338e+02
  1.653011e+00    1.217528e+02
  1.656127e+00    1.217527e+02
  1.659243e+00    1.217277e+02
  1.662359e+00    1.214013e+02
  1.665475e+00    1.211308e+02
  1.668591e+00    1.212321e+02
  1.671707e+00    1.212442e+02
  1.674823e+00    1.216612e+02
  1.677939e+00    1.215091e+02
  1.681055e+00    1.213998e+02
  1.684171e+00    1.212422e+02
  1.687287e+00    1.207594e+02
  1.690403e+00    1.203322e+02
  1.693519e+00    1.203096e+02
  1.696635e+00    1.206203e+02
  1.699751e+00    1.204576e+02
  1.702867e+00    1.198760e+02
  1.705983e+00    1.197427e+02
  1.709099e+00    1.198892e+02
  1.712214e+00    1.205919e+02
  1.715330e+00    1.212531e+02
  1.718446e+00    1.224842e+02
  1.721562e+00    1.241474e+02
  1.724678e+00    1.254976e+02
  1.727794e+00    1.263342e+02
  1.730910e+00    1.266104e+02
  1.734026e+00    1.252230e+02
  1.737142e+00    1.231623e+02
  1.740258e+00    1.214178e+02
  1.743374e+00    1.208315e+02
  1.746490e+00    1.206457e+02
  1.749606e+00    1.210801e+02
  1.752722e+00    1.219474e+02
  1.755838e+00    1.232761e+02
  1.758954e+00    1.234236e+02
  1.762070e+00    1.228488e+02
  1.765186e+00    1.219228e+02
  1.768302e+00    1.209722e+02
  1.771418e+00    1.201151e+02
  1.774533e+00    1.194305e+02
  1.777649e+00    1.191986e+02
  1.780765e+00    1.190253e+02
  1.783881e+00    1.194725e+02
  1.786997e+00    1.203278e+02
  1.790113e+00    1.229231e+02
  1.793229e+00    1.278974e+02
  1.796345e+00    1.352838e+02
  1.799461e+00    1.433497e+02
  1.802577e+00    1.495018e+02
  1.805693e+00    1.509244e+02
  1.808809e+00    1.470408e+02
  1.811925e+00    1.385981e+02
  1.815041e+00    1.299498e+02
  1.818157e+00    1.237702e+02
  1.821273e+00    1.203997e+02
  1.824389e+00    1.186906e+02
  1.827505e+00    1.178985e+02
  1.830621e+00    1.174830e+02
  1.833737e+00    1.169718e+02
  1.836852e+00    1.165722e+02
  1.839968e+00    1.171050e+02
  1.843084e+00    1.177430e+02
  1.846200e+00    1.175367e+02
  1.849316e+00    1.170936e+02
  1.852432e+00    1.170383e+02
  1.855548e+00    1.176854e+02
  1.858664e+00    1.185599e+02
  1.861780e+00    1.207980e+02
  1.864896e+00    1.259929e+02
  1.868012e+00    1.365360e+02
  1.871128e+00    1.523004e+02
  1.874244e+00    1.669060e+02
  1.877360e+00    1.747550e+02
  1.880476e+00    1.712345e+02
  1.883592e+00    1.583247e+02
  1.886708e+00    1.423876e+02
  1.889824e+00    1.296250e+02
  1.892940e+00    1.221833e+02
  1.896056e+00    1.188038e+02
  1.899171e+00    1.172640e+02
  1.902287e+00    1.165967e+02
  1.905403e+00    1.160120e+02
  1.908519e+00    1.155802e+02
  1.911635e+00    1.153853e+02
  1.914751e+00    1.153214e+02
  1.917867e+00    1.152783e+02
  1.920983e+00    1.149870e+02
  1.924099e+00    1.147520e+02
  1.927215e+00    1.147522e+02
  1.930331e+00    1.148729e+02
  1.933447e+00    1.149360e+02
  1.936563e+00    1.149902e+02
  1.939679e+00    1.146900e+02
  1.942795e+00    1.141825e+02
  1.945911e+00    1.138403e+02
  1.949027e+00    1.138692e+02
  1.952143e+00    1.141974e+02
  1.955259e+00    1.143280e+02
  1.958375e+00    1.139301e+02
  1.961490e+00    1.134593e+02
  1.964606e+00    1.136978e+02
  1.967722e+00    1.134775e+02
  1.970838e+00    1.134324e+02
  1.973954e+00    1.133982e+02
  1.977070e+00    1.135174e+02
  1.980186e+00    1.133579e+02
  1.983302e+00    1.132935e+02
  1.986418e+00    1.131234e+02
  1.989534e+00    1.130397e+02
  1.992650e+00    1.130337e+02
  1.995766e+00    1.132727e+02
  1.998882e+00    1.130959e+02
  2.001998e+00    1.129043e+02
  2.005114e+00    1.126053e+02
  2.008230e+00    1.123315e+02
  2.011346e+00    1.122988e+02
  2.014462e+00    1.126661e+02
  2.017578e+00    1.129159e+02
  2.020694e+00    1.131868e+02
  2.023809e+00    1.127453e+02
  2.026925e+00    1.122217e+02
  2.030041e+00    1.119108e+02
  2.033157e+00    1.113067e+02
  2.036273e+00    1.113584e+02
  2.039389e+00    1.110898e+02
  2.042505e+00    1.113248e+02
  2.045621e+00    1.116553e+02
  2.048737e+00    1.117780e+02
  2.051853e+00    1.114598e+02
  2.054969e+00    1.111407e+02
  2.058085e+00    1.110733e+02
  2.061201e+00    1.110147e+02
  2.064317e+00    1.112150e+02
  2.067433e+00    1.112482e+02
  2.070549e+00    1.111339e+02
  2.073665e+00    1.109346e+02
  2.076781e+00    1.109460e+02
  2.079897e+00    1.111177e+02
  2.083013e+00    1.115318e+02
  2.086128e+00    1.113115e+02
  2.089244e+00    1.109923e+02
  2.092360e+00    1.111083e+02
  2.095476e+00    1.113942e+02
  2.098592e+00    1.116939e+02
  2.101708e+00    1.117364e+02
  2.104824e+00    1.117458e+02
  2.107940e+00    1.114464e+02
  2.111056e+00    1.114442e+02
  2.114172e+00    1.110422e+02
  2.117288e+00    1.105785e+02
  2.120404e+00    1.106000e+02
  2.123520e+00    1.107356e+02
  2.126636e+00    1.106389e+02
  2.129752e+00    1.105294e+02
  2.132868e+00    1.105273e+02
  2.135984e+00    1.104679e+02
  2.139100e+00    1.104959e+02
  2.142216e+00    1.102701e+02
  2.145332e+00    1.103188e+02
  2.148447e+00    1.103385e+02
  2.151563e+00    1.105250e+02
  2.154679e+00    1.110368e+02
  2.157795e+00    1.110521e+02
  2.160911e+00    1.108889e+02
  2.164027e+00    1.107467e+02
  2.167143e+00    1.105668e+02
  2.170259e+00    1.105622e+02
  2.173375e+00    1.106106e+02
  2.176491e+00    1.108319e+02
  2.179607e+00    1.107289e+02
  2.182723e+00    1.104245e+02
  2.185839e+00    1.099126e+02
  2.188955e+00    1.098781e+02
  2.192071e+00    1.099800e+02
  2.195187e+00    1.105133e+02
  2.198303e+00    1.107144e+02
  2.201419e+00    1.106629e+02
  2.204535e+00    1.105452e+02
  2.207651e+00    1.103607e+02
  2.210766e+00    1.101435e+02
  2.213882e+00    1.100176e+02
  2.216998e+00    1.101139e+02
  2.220114e+00    1.099416e+02
  2.223230e+00    1.097352e+02
  2.226346e+00    1.098112e+02
  2.229462e+00    1.100485e+02
  2.232578e+00    1.105593e+02
  2.235694e+00    1.107985e+02
  2.238810e+00    1.107357e+02
  2.241926e+00    1.102794e+02
  2.245042e+00    1.101175e+02
  2.248158e+00    1.101766e+02
  2.251274e+00    1.102836e+02
  2.254390e+00    1.104365e+02
  2.257506e+00    1.109081e+02
  2.260622e+00    1.112068e+02
  2.263738e+00    1.115257e+02
  2.266854e+00    1.120653e+02
  2.269970e+00    1.120096e+02
  2.273085e+00    1.123191e+02
  2.276201e+00    1.130197e+02
  2.279317e+00    1.144602e+02
  2.282433e+00    1.173728e+02
  2.285549e+00    1.239065e+02
  2.288665e+00    1.379713e+02
  2.291781e+00    1.634159e+02
  2.294897e+00    1.981050e+02
  2.298013e+00    2.318259e+02
  2.301129e+00    2.488105e+02
  2.304245e+00    2.396913e+02
  2.307361e+00    2.105510e+02
  2.310477e+00    1.754894e+02
  2.313593e+00    1.472467e+02
  2.316709e+00    1.296003e+02
  2.319825e+00    1.203990e+02
  2.322941e+00    1.158362e+02
  2.326057e+00    1.141412e+02
  2.329173e+00    1.133858e+02
  2.332289e+00    1.131969e+02
  2.335404e+00    1.132981e+02
  2.338520e+00    1.139914e+02
  2.341636e+00    1.148514e+02
  2.344752e+00    1.153321e+02
  2.347868e+00    1.149896e+02
  2.350984e+00    1.140471e+02
  2.354100e+00    1.127910e+02
  2.357216e+00    1.120963e+02
  2.360332e+00    1.119436e+02
  2.363448e+00    1.116599e+02
  2.366564e+00    1.113803e+02
  2.369680e+00    1.109703e+02
  2.372796e+00    1.106898e+02
  2.375912e+00    1.103309e+02
  2.379028e+00    1.106792e+02
  2.382144e+00    1.109305e+02
  2.385260e+00    1.107425e+02
  2.388376e+00    1.103476e+02
  2.391492e+00    1.104808e+02
  2.394608e+00    1.108397e+02
  2.397723e+00    1.108570e+02
  2.400839e+00    1.108597e+02
  2.403955e+00    1.109136e+02
  2.407071e+00    1.110349e+02
  2.410187e+00    1.112001e+02
  2.413303e+00    1.111912e+02
  2.416419e+00    1.110861e+02
  2.419535e+00    1.109018e+02
  2.422651e+00    1.107836e+02
  2.425767e+00    1.106437e+02
  2.428883e+00    1.106253e+02
  2.431999e+00    1.108411e+02
  2.435115e+00    1.107990e+02
  2.438231e+00    1.106507e+02
  2.441347e+00    1.109861e+02
  2.444463e+00    1.111904e+02
  2.447579e+00    1.112676e+02
  2.450695e+00    1.114046e+02
  2.453811e+00    1.115939e+02
  2.456927e+00    1.113994e+02
  2.460042e+00    1.116273e+02
  2.463158e+00    1.119449e+02
  2.466274e+00    1.122970e+02
  2.469390e+00    1.124169e+02
  2.472506e+00    1.125839e+02
  2.475622e+00    1.131318e+02
  2.478738e+00    1.133434e+02
  2.481854e+00    1.135357e+02
  2.484970e+00    1.137867e+02
  2.488086e+00    1.142245e+02
  2.491202e+00    1.146351e+02
  2.494318e+00    1.153554e+02
  2.497434e+00    1.155827e+02
  2.500550e+00    1.157276e+02
  2.503666e+00    1.152006e+02
  2.506782e+00    1.148104e+02
  2.509898e+00    1.142299e+02
  2.513014e+00    1.135475e+02
  2.516130e+00    1.131950e+02
  2.519246e+00    1.131028e+02
  2.522361e+00    1.131716e+02
  2.525477e+00    1.129845e+02
  2.528593e+00    1.129693e+02
  2.531709e+00    1.131813e+02
  2.534825e+00    1.134008e+02
  2.537941e+00    1.135233e+02
  2.541057e+00    1.138088e+02
  2.544173e+00    1.138784e+02
  2.547289e+00    1.138083e+02
  2.550405e+00    1.138923e+02
  2.553521e+00    1.142157e+02
  2.556637e+00    1.141863e+02
  2.559753e+00    1.139524e+02
  2.562869e+00    1.140360e+02
  2.565985e+00    1.142949e+02
  2.569101e+00    1.142567e+02
  2.572217e+00    1.141902e+02
  2.575333e+00    1.142559e+02
  2.578449e+00    1.144318e+02
  2.581565e+00    1.143617e+02
  2.584680e+00    1.145885e+02
  2.587796e+00    1.147782e+02
  2.590912e+00    1.148269e+02
  2.594028e+00    1.151089e+02
  2.597144e+00    1.155460e+02
  2.600260e+00    1.159316e+02
  2.603376e+00    1.158900e+02
  2.606492e+00    1.155941e+02
  2.609608e+00    1.156125e+02
  2.612724e+00    1.157708e+02
  2.615840e+00    1.160525e+02
  2.618956e+00    1.163690e+02
  2.622072e+00    1.167174e+02
  2.625188e+00    1.168754e+02
  2.628304e+00    1.168961e+02
  2.631420e+00    1.166954e+02
  2.634536e+00    1.171107e+02
  2.637652e+00    1.173255e+02
  2.640768e+00    1.174962e+02
  2.643884e+00    1.171702e+02
  2.646999e+00    1.170585e+02
  2.650115e+00    1.171596e+02
  2.653231e+00    1.175340e+02
  2.656347e+00    1.178295e+02
  2.659463e+00    1.181124e+02
  2.662579e+00    1.180563e+02
  2.665695e+00    1.184342e+02
  2.668811e+00    1.187143e+02
  2.671927e+00    1.190249e+02
  2.675043e+00    1.191134e+02
  2.678159e+00    1.192095e+02
  2.681275e+00    1.193636e+02
  2.684391e+00    1.196060e+02
  2.687507e+00    1.197120e+02
  2.690623e+00    1.197925e+02
  2.693739e+00    1.201015e+02
  2.696855e+00    1.203374e+02
  2.699971e+00    1.204559e+02
  2.703087e+00    1.206462e+02
  2.706203e+00    1.207749e+02
  2.709318e+00    1.210036e+02
  2.712434e+00    1.214237e+02
  2.715550e+00    1.217856e+02
  2.718666e+00    1.217928e+02
  2.721782e+00    1.218326e+02
  2.724898e+00    1.222082e+02
  2.728014e+00    1.229859e+02
  2.731130e+00    1.241321e+02
  2.734246e+00    1.253899e+02
  2.737362e+00    1.266685e+02
  2.740478e+00    1.279326e+02
  2.743594e+00    1.288833e+02
  2.746710e+00    1.290569e+02
  2.749826e+00    1.290398e+02
  2.752942e+00    1.282506e+02
  2.756058e+00    1.272507e+02
  2.759174e+00    1.263255e+02
  2.762290e+00    1.260126e+02
  2.765406e+00    1.261600e+02
  2.768522e+00    1.264594e+02
  2.771637e+00    1.268326e+02
  2.774753e+00    1.269645e+02
  2.777869e+00    1.274229e+02
  2.780985e+00    1.279082e+02
  2.784101e+00    1.282879e+02
  2.787217e+00    1.284369e+02
  2.790333e+00    1.286826e+02
  2.793449e+00    1.288014e+02
  2.796565e+00    1.292837e+02
  2.799681e+00    1.296685e+02
  2.802797e+00    1.300285e+02
  2.805913e+00    1.302595e+02
  2.809029e+00    1.308756e+02
  2.812145e+00    1.316913e+02
  2.815261e+00    1.321918e+02
  2.818377e+00    1.325361e+02
  2.821493e+00    1.329631e+02
  2.824609e+00    1.333085e+02
  2.827725e+00    1.334780e+02
  2.830841e+00    1.335120e+02
  2.833956e+00    1.338112e+02
  2.837072e+00    1.340935e+02
  2.840188e+00    1.344588e+02
  2.843304e+00    1.349868e+02
  2.846420e+00    1.357174e+02
  2.849536e+00    1.359682e+02
  2.852652e+00    1.362897e+02
  2.855768e+00    1.366182e+02
  2.858884e+00    1.370060e+02
  2.862000e+00    1.373261e+02
  2.865116e+00    1.380564e+02
  2.868232e+00    1.388588e+02
  2.871348e+00    1.396298e+02
  2.874464e+00    1.398220e+02
  2.877580e+00    1.400382e+02
  2.880696e+00    1.407122e+02
  2.883812e+00    1.414741e+02
  2.886928e+00    1.420391e+02
  2.890044e+00    1.425018e+02
  2.893160e+00    1.427351e+02
  2.896275e+00    1.435547e+02
  2.899391e+00    1.434649e+02
  2.902507e+00    1.433394e+02
  2.905623e+00    1.435123e+02
  2.908739e+00    1.441758e+02
  2.911855e+00    1.444946e+02
  2.914971e+00    1.449048e+02
  2.918087e+00    1.458884e+02
  2.921203e+00    1.466672e+02
  2.924319e+00    1.473705e+02
  2.927435e+00    1.477573e+02
  2.930551e+00    1.480966e+02
  2.933667e+00    1.486772e+02
  2.936783e+00    1.493052e+02
  2.939899e+00    1.501544e+02
  2.943015e+00    1.508088e+02
  2.946131e+00    1.514434e+02
  2.949247e+00    1.526756e+02
  2.952363e+00    1.543655e+02
  2.955479e+00    1.569550e+02
  2.958594e+00    1.612595e+02
  2.961710e+00    1.680662e+02
  2.964826e+00    1.769081e+02
  2.967942e+00    1.857246e+02
  2.971058e+00    1.909415e+02
  2.974174e+00    1.903094e+02
  2.977290e+00    1.846924e+02
  2.980406e+00    1.766785e+02
  2.983522e+00    1.703102e+02
  2.986638e+00    1.663824e+02
  2.989754e+00    1.643644e+02
  2.992870e+00    1.634445e+02
  2.995986e+00    1.633739e+02
  2.999102e+00    1.638256e+02
  3.002218e+00    1.641285e+02
  3.005334e+00    1.643582e+02
  3.008450e+00    1.651989e+02
  3.011566e+00    1.663656e+02
  3.014682e+00    1.675292e+02
  3.017798e+00    1.684792e+02
  3.020913e+00    1.695291e+02
  3.024029e+00    1.704747e+02
  3.027145e+00    1.718199e+02
  3.030261e+00    1.735832e+02
  3.033377e+00    1.753860e+02
  3.036493e+00    1.766340e+02
  3.039609e+00    1.779301e+02
  3.042725e+00    1.785275e+02
  3.045841e+00    1.784409e+02
  3.048957e+00    1.781799e+02
  3.052073e+00    1.783876e+02
  3.055189e+00    1.791172e+02
  3.058305e+00    1.801520e+02
  3.061421e+00    1.814622e+02
  3.064537e+00    1.828793e+02
  3.067653e+00    1.841898e+02
  3.070769e+00    1.855908e+02
  3.073885e+00    1.870657e+02
  3.077001e+00    1.884720e+02
  3.080117e+00    1.898618e+02
  3.083232e+00    1.913339e+02
  3.086348e+00    1.930852e+02
  3.089464e+00    1.944446e+02
  3.092580e+00    1.957819e+02
  3.095696e+00    1.976583e+02
  3.098812e+00    1.995967e+02
  3.101928e+00    2.015707e+02
  3.105044e+00    2.036447e+02
  3.108160e+00    2.061421e+02
  3.111276e+00    2.090271e+02
  3.114392e+00    2.115460e+02
  3.117508e+00    2.139703e+02
  3.120624e+00    2.167690e+02
  3.123740e+00    2.199924e+02
  3.126856e+00    2.235625e+02
  3.129972e+00    2.279404e+02
  3.133088e+00    2.336491e+02
  3.136204e+00    2.411858e+02
  3.139320e+00    2.516956e+02
  3.142436e+00    2.683164e+02
  3.145551e+00    2.983630e+02
  3.148667e+00    3.581118e+02
  3.151783e+00    4.919212e+02
  3.154899e+00    7.734073e+02
  3.158015e+00    1.298088e+03
  3.161131e+00    2.092380e+03
  3.164247e+00    2.952597e+03
  3.167363e+00    3.621551e+03
  3.170479e+00    3.749733e+03
  3.173595e+00    3.345241e+03
  3.176711e+00    2.597402e+03
  3.179827e+00    1.772968e+03
  3.182943e+00    1.119399e+03
  3.186059e+00    6.946998e+02
  3.189175e+00    4.716795e+02
  3.192291e+00    3.653548e+02
  3.195407e+00    3.167807e+02
  3.198523e+00    2.922921e+02
  3.201639e+00    2.791115e+02
  3.204755e+00    2.712514e+02
  3.207870e+00    2.663488e+02
  3.210986e+00    2.627489e+02
  3.214102e+00    2.600900e+02
  3.217218e+00    2.581099e+02
  3.220334e+00    2.568208e+02
  3.223450e+00    2.560958e+02
  3.226566e+00    2.555844e+02
  3.229682e+00    2.552707e+02
  3.232798e+00    2.555453e+02
  3.235914e+00    2.560756e+02
  3.239030e+00    2.565989e+02
  3.242146e+00    2.570170e+02
  3.245262e+00    2.568906e+02
  3.248378e+00    2.562880e+02
  3.251494e+00    2.559804e+02
  3.254610e+00    2.555662e+02
  3.257726e+00    2.550192e+02
  3.260842e+00    2.546448e+02
  3.263958e+00    2.545701e+02
  3.267074e+00    2.547743e+02
  3.270189e+00    2.554270e+02
  3.273305e+00    2.563834e+02
  3.276421e+00    2.575415e+02
  3.279537e+00    2.586770e+02
  3.282653e+00    2.598016e+02
  3.285769e+00    2.605190e+02
  3.288885e+00    2.609919e+02
  3.292001e+00    2.615241e+02
  3.295117e+00    2.611402e+02
  3.298233e+00    2.601955e+02
  3.301349e+00    2.602729e+02
  3.304465e+00    2.611828e+02
  3.307581e+00    2.620892e+02
  3.310697e+00    2.630543e+02
  3.313813e+00    2.640795e+02
  3.316929e+00    2.647120e+02
  3.320045e+00    2.653692e+02
  3.323161e+00    2.661457e+02
  3.326277e+00    2.672747e+02
  3.329393e+00    2.687171e+02
  3.332508e+00    2.702397e+02
  3.335624e+00    2.714566e+02
  3.338740e+00    2.727245e+02
  3.341856e+00    2.738284e+02
  3.344972e+00    2.749650e+02
  3.348088e+00    2.761256e+02
  3.351204e+00    2.773692e+02
  3.354320e+00    2.785725e+02
  3.357436e+00    2.798723e+02
  3.360552e+00    2.809380e+02
  3.363668e+00    2.824625e+02
  3.366784e+00    2.842697e+02
  3.369900e+00    2.861210e+02
  3.373016e+00    2.879652e+02
  3.376132e+00    2.897087e+02
  3.379248e+00    2.913771e+02
  3.382364e+00    2.932341e+02
  3.385480e+00    2.949368e+02
  3.388596e+00    2.972588e+02
  3.391712e+00    2.994001e+02
  3.394827e+00    3.018960e+02
  3.397943e+00    3.041047e+02
  3.401059e+00    3.067262e+02
  3.404175e+00    3.096953e+02
  3.407291e+00    3.124954e+02
  3.410407e+00    3.152452e+02
  3.413523e+00    3.184948e+02
  3.416639e+00    3.228116e+02
  3.419755e+00    3.281455e+02
  3.422871e+00    3.353387e+02
  3.425987e+00    3.452598e+02
  3.429103e+00    3.614937e+02
  3.432219e+00    3.891798e+02
  3.435335e+00    4.466857e+02
  3.438451e+00    5.652645e+02
  3.441567e+00    8.334088e+02
  3.444683e+00    1.317413e+03
  3.447799e+00    2.077145e+03
  3.450915e+00    2.957233e+03
  3.454031e+00    3.595323e+03
  3.457146e+00    3.641529e+03
  3.460262e+00    2.922379e+03
  3.463378e+00    2.187348e+03
  3.466494e+00    1.467354e+03
  3.469610e+00    9.608419e+02
  3.472726e+00    6.597902e+02
  3.475842e+00    5.075343e+02
  3.478958e+00    4.424749e+02
  3.482074e+00    4.157963e+02
  3.485190e+00    4.057874e+02
  3.488306e+00    4.047828e+02
  3.491422e+00    4.126942e+02
  3.494538e+00    4.349104e+02
  3.497654e+00    4.865127e+02
  3.500770e+00    5.966995e+02
  3.503886e+00    8.067679e+02
  3.507002e+00    1.136891e+03
  3.510118e+00    1.528600e+03
  3.513234e+00    1.850388e+03
  3.516350e+00    1.959177e+03
  3.519465e+00    1.807187e+03
  3.522581e+00    1.476296e+03
  3.525697e+00    1.114986e+03
  3.528813e+00    8.345242e+02
  3.531929e+00    6.555267e+02
  3.535045e+00    5.548669e+02
  3.538161e+00    4.968788e+02
  3.541277e+00    4.619496e+02
  3.544393e+00    4.400637e+02
  3.547509e+00    4.284677e+02
  3.550625e+00    4.234908e+02
  3.553741e+00    4.229476e+02
  3.556857e+00    4.251137e+02
  3.559973e+00    4.302351e+02
  3.563089e+00    4.386864e+02
  3.566205e+00    4.501530e+02
  3.569321e+00    4.651600e+02
  3.572437e+00    4.847894e+02
  3.575553e+00    5.113809e+02
  3.578669e+00    5.481262e+02
  3.581784e+00    6.066382e+02
  3.584900e+00    7.055308e+02
  3.588016e+00    9.128953e+02
  3.591132e+00    1.331876e+03
  3.594248e+00    2.343259e+03
  3.597364e+00    4.205747e+03
  3.600480e+00    7.423777e+03
  3.603596e+00    1.144882e+04
  3.606712e+00    1.445983e+04
  3.609828e+00    1.551918e+04
  3.612944e+00    1.460310e+04
  3.616060e+00    1.160415e+04
  3.619176e+00    8.270490e+03
  3.622292e+00    5.275118e+03
  3.625408e+00    3.099772e+03
  3.628524e+00    1.774302e+03
  3.631640e+00    1.100300e+03
  3.634756e+00    7.833245e+02
  3.637872e+00    6.317664e+02
  3.640988e+00    5.516417e+02
  3.644103e+00    5.033031e+02
  3.647219e+00    4.709579e+02
  3.650335e+00    4.474070e+02
  3.653451e+00    4.300948e+02
  3.656567e+00    4.164224e+02
  3.659683e+00    4.055650e+02
  3.662799e+00    3.964199e+02
  3.665915e+00    3.879051e+02
  3.669031e+00    3.793710e+02
  3.672147e+00    3.711528e+02
  3.675263e+00    3.629855e+02
  3.678379e+00    3.547036e+02
  3.681495e+00    3.464830e+02
  3.684611e+00    3.387515e+02
  3.687727e+00    3.314417e+02
  3.690843e+00    3.251374e+02
  3.693959e+00    3.196992e+02
  3.697075e+00    3.149303e+02
  3.700191e+00    3.107141e+02
  3.703307e+00    3.069248e+02
  3.706422e+00    3.034753e+02
  3.709538e+00    3.003132e+02
  3.712654e+00    2.972771e+02
  3.715770e+00    2.943175e+02
  3.718886e+00    2.914233e+02
  3.722002e+00    2.884997e+02
  3.725118e+00    2.856695e+02
  3.728234e+00    2.834765e+02
  3.731350e+00    2.826984e+02
  3.734466e+00    2.843686e+02
  3.737582e+00    2.902039e+02
  3.740698e+00    3.058063e+02
  3.743814e+00    3.383017e+02
  3.746930e+00    3.941637e+02
  3.750046e+00    4.664912e+02
  3.753162e+00    5.337600e+02
  3.756278e+00    5.663421e+02
  3.759394e+00    5.461942e+02
  3.762510e+00    4.829292e+02
  3.765626e+00    4.061298e+02
  3.768741e+00    3.405755e+02
  3.771857e+00    2.986092e+02
  3.774973e+00    2.750470e+02
  3.778089e+00    2.627241e+02
  3.781205e+00    2.559815e+02
  3.784321e+00    2.518258e+02
  3.787437e+00    2.490635e+02
  3.790553e+00    2.472481e+02
  3.793669e+00    2.457467e+02
  3.796785e+00    2.441423e+02
  3.799901e+00    2.430596e+02
  3.803017e+00    2.424191e+02
  3.806133e+00    2.420204e+02
  3.809249e+00    2.412810e+02
  3.812365e+00    2.404794e+02
  3.815481e+00    2.397598e+02
  3.818597e+00    2.390174e+02
  3.821713e+00    2.385399e+02
  3.824829e+00    2.379450e+02
  3.827945e+00    2.373677e+02
  3.831060e+00    2.364439e+02
  3.834176e+00    2.352743e+02
  3.837292e+00    2.338478e+02
  3.840408e+00    2.319376e+02
  3.843524e+00    2.300829e+02
  3.846640e+00    2.283711e+02
  3.849756e+00    2.270773e+02
  3.852872e+00    2.258861e+02
  3.855988e+00    2.248170e+02
  3.859104e+00    2.240011e+02
  3.862220e+00    2.235709e+02
  3.865336e+00    2.232490e+02
  3.868452e+00    2.228191e+02
  3.871568e+00    2.222480e+02
  3.874684e+00    2.212935e+02
  3.877800e+00    2.200639e+02
  3.880916e+00    2.183562e+02
  3.884032e+00    2.167827e+02
  3.887148e+00    2.150826e+02
  3.890264e+00    2.133426e+02
  3.893379e+00    2.116432e+02
  3.896495e+00    2.102530e+02
  3.899611e+00    2.092315e+02
  3.902727e+00    2.080777e+02
  3.905843e+00    2.068748e+02
  3.908959e+00    2.057593e+02
  3.912075e+00    2.050559e+02
  3.915191e+00    2.044441e+02
  3.918307e+00    2.037158e+02
  3.921423e+00    2.028682e+02
  3.924539e+00    2.023218e+02
  3.927655e+00    2.016113e+02
  3.930771e+00    2.011216e+02
  3.933887e+00    2.006276e+02
  3.937003e+00    2.004192e+02
  3.940119e+00    1.998261e+02
  3.943235e+00    1.990619e+02
  3.946351e+00    1.982590e+02
  3.949467e+00    1.978453e+02
  3.952583e+00    1.977385e+02
  3.955698e+00    1.975316e+02
  3.958814e+00    1.983067e+02
  3.961930e+00    1.992958e+02
  3.965046e+00    2.001935e+02
  3.968162e+00    2.008293e+02
  3.971278e+00    2.004225e+02
  3.974394e+00    1.985363e+02
  3.977510e+00    1.958418e+02
  3.980626e+00    1.933553e+02
  3.983742e+00    1.922457e+02
  3.986858e+00    1.919892e+02
  3.989974e+00    1.916241e+02
  3.993090e+00    1.909731e+02
  3.996206e+00    1.904778e+02
  3.999322e+00    1.898427e+02
  4.002438e+00    1.894686e+02
  4.005554e+00    1.889571e+02
  4.008670e+00    1.883246e+02
  4.011786e+00    1.873649e+02
  4.014902e+00    1.864136e+02
  4.018017e+00    1.857033e+02
  4.021133e+00    1.850083e+02
  4.024249e+00    1.841741e+02
  4.027365e+00    1.834894e+02
  4.030481e+00    1.831147e+02
  4.033597e+00    1.826371e+02
  4.036713e+00    1.821702e+02
  4.039829e+00    1.814660e+02
  4.042945e+00    1.806075e+02
  4.046061e+00    1.798761e+02
  4.049177e+00    1.793917e+02
  4.052293e+00    1.786808e+02
  4.055409e+00    1.781698e+02
  4.058525e+00    1.775625e+02
  4.061641e+00    1.770068e+02
  4.064757e+00    1.763815e+02
  4.067873e+00    1.758011e+02
  4.070989e+00    1.753960e+02
  4.074105e+00    1.750718e+02
  4.077221e+00    1.745385e+02
  4.080336e+00    1.736241e+02
  4.083452e+00    1.729285e+02
  4.086568e+00    1.726415e+02
  4.089684e+00    1.725001e+02
  4.092800e+00    1.720323e+02
  4.095916e+00    1.716148e+02
  4.099032e+00    1.712950e+02
  4.102148e+00    1.707770e+02
  4.105264e+00    1.701230e+02
  4.108380e+00    1.692372e+02
  4.111496e+00    1.685425e+02
  4.114612e+00    1.684174e+02
  4.117728e+00    1.683592e+02
  4.120844e+00    1.679924e+02
  4.123960e+00    1.676125e+02
  4.127076e+00    1.673596e+02
  4.130192e+00    1.672253e+02
  4.133308e+00    1.670887e+02
  4.136424e+00    1.669670e+02
  4.139540e+00    1.669008e+02
  4.142655e+00    1.666697e+02
  4.145771e+00    1.661375e+02
  4.148887e+00    1.657592e+02
  4.152003e+00    1.655094e+02
  4.155119e+00    1.654528e+02
  4.158235e+00    1.655989e+02
  4.161351e+00    1.654267e+02
  4.164467e+00    1.654644e+02
  4.167583e+00    1.655760e+02
  4.170699e+00    1.663773e+02
  4.173815e+00    1.676422e+02
  4.176931e+00    1.703244e+02
  4.180047e+00    1.754599e+02
  4.183163e+00    1.863099e+02
  4.186279e+00    2.074907e+02
  4.189395e+00    2.460312e+02
  4.192511e+00    3.082872e+02
  4.195627e+00    3.897631e+02
  4.198743e+00    4.736353e+02
  4.201858e+00    5.288502e+02
  4.204974e+00    5.341833e+02
  4.208090e+00    4.875247e+02
  4.211206e+00    4.085022e+02
  4.214322e+00    3.291049e+02
  4.217438e+00    2.644165e+02
  4.220554e+00    2.219234e+02
  4.223670e+00    1.956099e+02
  4.226786e+00    1.804306e+02
  4.229902e+00    1.711619e+02
  4.233018e+00    1.652906e+02
  4.236134e+00    1.608908e+02
  4.239250e+00    1.580269e+02
  4.242366e+00    1.561592e+02
  4.245482e+00    1.549023e+02
  4.248598e+00    1.538915e+02
  4.251714e+00    1.528392e+02
  4.254830e+00    1.518154e+02
  4.257946e+00    1.511147e+02
  4.261062e+00    1.503125e+02
  4.264177e+00    1.496186e+02
  4.267293e+00    1.490341e+02
  4.270409e+00    1.487863e+02
  4.273525e+00    1.482320e+02
  4.276641e+00    1.468653e+02
  4.279757e+00    1.464050e+02
  4.282873e+00    1.467105e+02
  4.285989e+00    1.463520e+02
  4.289105e+00    1.458259e+02
  4.292221e+00    1.452568e+02
  4.295337e+00    1.448758e+02
  4.298453e+00    1.444493e+02
  4.301569e+00    1.440813e+02
  4.304685e+00    1.436594e+02
  4.307801e+00    1.431789e+02
  4.310917e+00    1.425875e+02
  4.314033e+00    1.422732e+02
  4.317149e+00    1.418243e+02
  4.320265e+00    1.413353e+02
  4.323381e+00    1.410142e+02
  4.326496e+00    1.409142e+02
  4.329612e+00    1.405088e+02
  4.332728e+00    1.398433e+02
  4.335844e+00    1.395860e+02
  4.338960e+00    1.395070e+02
  4.342076e+00    1.394458e+02
  4.345192e+00    1.391858e+02
  4.348308e+00    1.388923e+02
  4.351424e+00    1.384028e+02
  4.354540e+00    1.380288e+02
  4.357656e+00    1.379404e+02
  4.360772e+00    1.376923e+02
  4.363888e+00    1.374878e+02
  4.367004e+00    1.371926e+02
  4.370120e+00    1.368108e+02
  4.373236e+00    1.365566e+02
  4.376352e+00    1.366463e+02
  4.379468e+00    1.364770e+02
  4.382584e+00    1.362888e+02
  4.385700e+00    1.360438e+02
  4.388815e+00    1.358755e+02
  4.391931e+00    1.357056e+02
  4.395047e+00    1.357949e+02
  4.398163e+00    1.359417e+02
  4.401279e+00    1.363586e+02
  4.404395e+00    1.367122e+02
  4.407511e+00    1.368995e+02
  4.410627e+00    1.370375e+02
  4.413743e+00    1.371096e+02
  4.416859e+00    1.370350e+02
  4.419975e+00    1.365276e+02
  4.423091e+00    1.360883e+02
  4.426207e+00    1.359246e+02
  4.429323e+00    1.355919e+02
  4.432439e+00    1.350470e+02
  4.435555e+00    1.349005e+02
  4.438671e+00    1.344792e+02
  4.441787e+00    1.339793e+02
  4.444903e+00    1.335578e+02
  4.448019e+00    1.331549e+02
  4.451134e+00    1.328461e+02
  4.454250e+00    1.325371e+02
  4.457366e+00    1.322603e+02
  4.460482e+00    1.322540e+02
  4.463598e+00    1.322494e+02
  4.466714e+00    1.320064e+02
  4.469830e+00    1.317536e+02
  4.472946e+00    1.316899e+02
  4.476062e+00    1.317570e+02
  4.479178e+00    1.318605e+02
  4.482294e+00    1.315754e+02
  4.485410e+00    1.314976e+02
  4.488526e+00    1.312362e+02
  4.491642e+00    1.312392e+02
  4.494758e+00    1.313155e+02
  4.497874e+00    1.314590e+02
  4.500990e+00    1.314895e+02
  4.504106e+00    1.313963e+02
  4.507222e+00    1.315830e+02
  4.510338e+00    1.317109e+02
  4.513453e+00    1.315770e+02
  4.516569e+00    1.313663e+02
  4.519685e+00    1.312636e+02
  4.522801e+00    1.309710e+02
  4.525917e+00    1.311541e+02
  4.529033e+00    1.313535e+02
  4.532149e+00    1.313684e+02
  4.535265e+00    1.309703e+02
  4.538381e+00    1.308334e+02
  4.541497e+00    1.309910e+02
  4.544613e+00    1.313159e+02
  4.547729e+00    1.314187e+02
  4.550845e+00    1.313988e+02
  4.553961e+00    1.314098e+02
  4.557077e+00    1.313209e+02
  4.560193e+00    1.314008e+02
  4.563309e+00    1.316703e+02
  4.566425e+00    1.321163e+02
  4.569541e+00    1.326677e+02
  4.572657e+00    1.334593e+02
  4.575772e+00    1.340414e+02
  4.578888e+00    1.345831e+02
  4.582004e+00    1.349816e+02
  4.585120e+00    1.358466e+02
  4.588236e+00    1.371726e+02
  4.591352e+00    1.393502e+02
  4.594468e+00    1.423447e+02
  4.597584e+00    1.462172e+02
  4.600700e+00    1.497784e+02
  4.603816e+00    1.517856e+02
  4.606932e+00    1.515701e+02
  4.610048e+00    1.497787e+02
  4.613164e+00    1.470303e+02
  4.616280e+00    1.442991e+02
  4.619396e+00    1.424873e+02
  4.622512e+00    1.417826e+02
  4.625628e+00    1.417640e+02
  4.628744e+00    1.420093e+02
  4.631860e+00    1.428767e+02
  4.634976e+00    1.441439e+02
  4.638091e+00    1.454272e+02
  4.641207e+00    1.466923e+02
  4.644323e+00    1.483345e+02
  4.647439e+00    1.497987e+02
  4.650555e+00    1.516795e+02
  4.653671e+00    1.543344e+02
  4.656787e+00    1.580834e+02
  4.659903e+00    1.638571e+02
  4.663019e+00    1.739230e+02
  4.666135e+00    1.925276e+02
  4.669251e+00    2.300831e+02
  4.672367e+00    3.090381e+02
  4.675483e+00    4.635338e+02
  4.678599e+00    7.256361e+02
  4.681715e+00    1.072732e+03
  4.684831e+00    1.423452e+03
  4.687947e+00    1.680165e+03
  4.691063e+00    1.758164e+03
  4.694179e+00    1.679500e+03
  4.697295e+00    1.457594e+03
  4.700410e+00    1.183031e+03
  4.703526e+00    8.632283e+02
  4.706642e+00    5.790239e+02
  4.709758e+00    3.526426e+02
  4.712874e+00    2.530694e+02
  4.715990e+00    2.032612e+02
  4.719106e+00    1.804392e+02
  4.722222e+00    1.685366e+02
  4.725338e+00    1.615111e+02
  4.728454e+00    1.572895e+02
  4.731570e+00    1.540955e+02
  4.734686e+00    1.515304e+02
  4.737802e+00    1.494259e+02
  4.740918e+00    1.479054e+02
  4.744034e+00    1.463568e+02
  4.747150e+00    1.451128e+02
  4.750266e+00    1.437227e+02
  4.753382e+00    1.427267e+02
  4.756498e+00    1.417865e+02
  4.759614e+00    1.411258e+02
  4.762729e+00    1.404933e+02
  4.765845e+00    1.398707e+02
  4.768961e+00    1.395912e+02
  4.772077e+00    1.398800e+02
  4.775193e+00    1.411396e+02
  4.778309e+00    1.440204e+02
  4.781425e+00    1.492734e+02
  4.784541e+00    1.563381e+02
  4.787657e+00    1.636799e+02
  4.790773e+00    1.685436e+02
  4.793889e+00    1.689884e+02
  4.797005e+00    1.648686e+02
  4.800121e+00    1.575841e+02
  4.803237e+00    1.501145e+02
  4.806353e+00    1.437202e+02
  4.809469e+00    1.392436e+02
  4.812585e+00    1.361139e+02
  4.815701e+00    1.341897e+02
  4.818817e+00    1.330059e+02
  4.821933e+00    1.323355e+02
  4.825048e+00    1.317339e+02
  4.828164e+00    1.312077e+02
  4.831280e+00    1.305831e+02
  4.834396e+00    1.301312e+02
  4.837512e+00    1.298386e+02
  4.840628e+00    1.296921e+02
  4.843744e+00    1.296730e+02
  4.846860e+00    1.296620e+02
  4.849976e+00    1.291465e+02
  4.853092e+00    1.288737e+02
  4.856208e+00    1.287655e+02
  4.859324e+00    1.286726e+02
  4.862440e+00    1.284050e+02
  4.865556e+00    1.282514e+02
  4.868672e+00    1.282169e+02
  4.871788e+00    1.282204e+02
  4.874904e+00    1.281367e+02
  4.878020e+00    1.279411e+02
  4.881136e+00    1.277814e+02
  4.884252e+00    1.277867e+02
  4.887367e+00    1.276311e+02
  4.890483e+00    1.276850e+02
  4.893599e+00    1.276840e+02
  4.896715e+00    1.275821e+02
  4.899831e+00    1.274047e+02
  4.902947e+00    1.274755e+02
  4.906063e+00    1.276519e+02
  4.909179e+00    1.276170e+02
  4.912295e+00    1.272916e+02
  4.915411e+00    1.274060e+02
  4.918527e+00    1.275223e+02
  4.921643e+00    1.276503e+02
  4.924759e+00    1.277411e+02
  4.927875e+00    1.277545e+02
  4.930991e+00    1.277839e+02
  4.934107e+00    1.275522e+02
  4.937223e+00    1.273674e+02
  4.940339e+00    1.274094e+02
  4.943455e+00    1.276880e+02
  4.946571e+00    1.275052e+02
  4.949686e+00    1.272171e+02
  4.952802e+00    1.270110e+02
  4.955918e+00    1.270199e+02
  4.959034e+00    1.270327e+02
  4.962150e+00    1.270948e+02
  4.965266e+00    1.273122e+02
  4.968382e+00    1.273035e+02
  4.971498e+00    1.274700e+02
  4.974614e+00    1.279199e+02
  4.977730e+00    1.287696e+02
  4.980846e+00    1.298521e+02
  4.983962e+00    1.309496e+02
  4.987078e+00    1.320386e+02
  4.990194e+00    1.329376e+02
  4.993310e+00    1.329853e+02
  4.996426e+00    1.329137e+02
  4.999542e+00    1.328973e+02
  5.002658e+00    1.324989e+02
  5.005774e+00    1.314702e+02
  5.008890e+00    1.300302e+02
  5.012005e+00    1.290540e+02
  5.015121e+00    1.283010e+02
  5.018237e+00    1.278740e+02
  5.021353e+00    1.279344e+02
  5.024469e+00    1.280236e+02
  5.027585e+00    1.278215e+02
  5.030701e+00    1.273986e+02
  5.033817e+00    1.274874e+02
  5.036933e+00    1.276994e+02
  5.040049e+00    1.279852e+02
  5.043165e+00    1.280238e+02
  5.046281e+00    1.279670e+02
  5.049397e+00    1.279550e+02
  5.052513e+00    1.279693e+02
  5.055629e+00    1.281027e+02
  5.058745e+00    1.281085e+02
  5.061861e+00    1.280167e+02
  5.064977e+00    1.281664e+02
  5.068093e+00    1.282915e+02
  5.071209e+00    1.281688e+02
  5.074324e+00    1.281965e+02
  5.077440e+00    1.282768e+02
  5.080556e+00    1.284053e+02
  5.083672e+00    1.284354e+02
  5.086788e+00    1.285513e+02
  5.089904e+00    1.286563e+02
  5.093020e+00    1.287297e+02
  5.096136e+00    1.286565e+02
  5.099252e+00    1.287925e+02
  5.102368e+00    1.289303e+02
  5.105484e+00    1.289090e+02
  5.108600e+00    1.289173e+02
  5.111716e+00    1.288542e+02
  5.114832e+00    1.289626e+02
  5.117948e+00    1.293275e+02
  5.121064e+00    1.297080e+02
  5.124180e+00    1.299676e+02
  5.127296e+00    1.304989e+02
  5.130412e+00    1.315833e+02
  5.133528e+00    1.335519e+02
  5.136643e+00    1.361385e+02
  5.139759e+00    1.390327e+02
  5.142875e+00    1.415123e+02
  5.145991e+00    1.422796e+02
  5.149107e+00    1.413726e+02
  5.152223e+00    1.393514e+02
  5.155339e+00    1.369934e+02
  5.158455e+00    1.348794e+02
  5.161571e+00    1.332150e+02
  5.164687e+00    1.322346e+02
  5.167803e+00    1.318602e+02
  5.170919e+00    1.316261e+02
  5.174035e+00    1.316114e+02
  5.177151e+00    1.316814e+02
  5.180267e+00    1.317738e+02
  5.183383e+00    1.319762e+02
  5.186499e+00    1.323955e+02
  5.189615e+00    1.323188e+02
  5.192731e+00    1.322938e+02
  5.195847e+00    1.322105e+02
  5.198962e+00    1.322196e+02
  5.202078e+00    1.322802e+02
  5.205194e+00    1.323424e+02
  5.208310e+00    1.326290e+02
  5.211426e+00    1.329872e+02
  5.214542e+00    1.333063e+02
  5.217658e+00    1.336774e+02
  5.220774e+00    1.339274e+02
  5.223890e+00    1.338837e+02
  5.227006e+00    1.339386e+02
  5.230122e+00    1.340854e+02
  5.233238e+00    1.342663e+02
  5.236354e+00    1.342275e+02
  5.239470e+00    1.343336e+02
  5.242586e+00    1.345890e+02
  5.245702e+00    1.348371e+02
  5.248818e+00    1.350926e+02
  5.251934e+00    1.351738e+02
  5.255050e+00    1.353325e+02
  5.258166e+00    1.354370e+02
  5.261281e+00    1.357705e+02
  5.264397e+00    1.359777e+02
  5.267513e+00    1.361842e+02
  5.270629e+00    1.364434e+02
  5.273745e+00    1.366522e+02
  5.276861e+00    1.370609e+02
  5.279977e+00    1.372827e+02
  5.283093e+00    1.373786e+02
  5.286209e+00    1.377763e+02
  5.289325e+00    1.384301e+02
  5.292441e+00    1.385011e+02
  5.295557e+00    1.384017e+02
  5.298673e+00    1.386089e+02
  5.301789e+00    1.389977e+02
  5.304905e+00    1.391984e+02
  5.308021e+00    1.393880e+02
  5.311137e+00    1.398776e+02
  5.314253e+00    1.401916e+02
  5.317369e+00    1.404784e+02
  5.320485e+00    1.407547e+02
  5.323600e+00    1.408992e+02
  5.326716e+00    1.412203e+02
  5.329832e+00    1.416252e+02
  5.332948e+00    1.418537e+02
  5.336064e+00    1.422684e+02
  5.339180e+00    1.428958e+02
  5.342296e+00    1.434004e+02
  5.345412e+00    1.438302e+02
  5.348528e+00    1.442230e+02
  5.351644e+00    1.445306e+02
  5.354760e+00    1.449176e+02
  5.357876e+00    1.454159e+02
  5.360992e+00    1.458740e+02
  5.364108e+00    1.463188e+02
  5.367224e+00    1.468047e+02
  5.370340e+00    1.474395e+02
  5.373456e+00    1.480499e+02
  5.376572e+00    1.487803e+02
  5.379688e+00    1.496662e+02
  5.382804e+00    1.506439e+02
  5.385919e+00    1.512231e+02
  5.389035e+00    1.516823e+02
  5.392151e+00    1.519849e+02
  5.395267e+00    1.523653e+02
  5.398383e+00    1.530915e+02
  5.401499e+00    1.537716e+02
  5.404615e+00    1.548500e+02
  5.407731e+00    1.559061e+02
  5.410847e+00    1.567636e+02
  5.413963e+00    1.577002e+02
  5.417079e+00    1.588948e+02
  5.420195e+00    1.600440e+02
  5.423311e+00    1.611568e+02
  5.426427e+00    1.625598e+02
  5.429543e+00    1.639494e+02
  5.432659e+00    1.654292e+02
  5.435775e+00    1.669309e+02
  5.438891e+00    1.684704e+02
  5.442007e+00    1.704036e+02
  5.445123e+00    1.730068e+02
  5.448238e+00    1.759022e+02
  5.451354e+00    1.795460e+02
  5.454470e+00    1.843367e+02
  5.457586e+00    1.908647e+02
  5.460702e+00    2.003134e+02
  5.463818e+00    2.149237e+02
  5.466934e+00    2.400059e+02
  5.470050e+00    2.863652e+02
  5.473166e+00    3.746773e+02
  5.476282e+00    5.307585e+02
  5.479398e+00    7.876378e+02
  5.482514e+00    1.117606e+03
  5.485630e+00    1.479638e+03
  5.488746e+00    1.716912e+03
  5.491862e+00    1.792825e+03
  5.494978e+00    1.681572e+03
  5.498094e+00    1.464355e+03
  5.501210e+00    1.226107e+03
  5.504326e+00    1.022860e+03
  5.507442e+00    7.928898e+02
  5.510557e+00    5.531016e+02
  5.513673e+00    3.831608e+02
  5.516789e+00    2.891878e+02
  5.519905e+00    2.404004e+02
  5.523021e+00    2.158299e+02
  5.526137e+00    2.027465e+02
  5.529253e+00    1.948153e+02
  5.532369e+00    1.893858e+02
  5.535485e+00    1.854592e+02
  5.538601e+00    1.824035e+02
  5.541717e+00    1.800270e+02
  5.544833e+00    1.780924e+02
  5.547949e+00    1.760927e+02
  5.551065e+00    1.744526e+02
  5.554181e+00    1.733384e+02
  5.557297e+00    1.721765e+02
  5.560413e+00    1.709216e+02
  5.563529e+00    1.699337e+02
  5.566645e+00    1.691470e+02
  5.569761e+00    1.682769e+02
  5.572876e+00    1.675163e+02
  5.575992e+00    1.670067e+02
  5.579108e+00    1.667401e+02
  5.582224e+00    1.667626e+02
  5.585340e+00    1.664103e+02
  5.588456e+00    1.659295e+02
  5.591572e+00    1.653447e+02
  5.594688e+00    1.651852e+02
  5.597804e+00    1.651620e+02
  5.600920e+00    1.651715e+02
  5.604036e+00    1.657329e+02
  5.607152e+00    1.661867e+02
  5.610268e+00    1.675170e+02
  5.613384e+00    1.701899e+02
  5.616500e+00    1.758376e+02
  5.619616e+00    1.858315e+02
  5.622732e+00    2.047415e+02
  5.625848e+00    2.360207e+02
  5.628964e+00    2.817849e+02
  5.632080e+00    3.366435e+02
  5.635195e+00    3.883730e+02
  5.638311e+00    4.197086e+02
  5.641427e+00    4.187652e+02
  5.644543e+00    3.865512e+02
  5.647659e+00    3.355937e+02
  5.650775e+00    2.826103e+02
  5.653891e+00    2.396961e+02
  5.657007e+00    2.099869e+02
  5.660123e+00    1.918976e+02
  5.663239e+00    1.808676e+02
  5.666355e+00    1.743364e+02
  5.669471e+00    1.702912e+02
  5.672587e+00    1.675690e+02
  5.675703e+00    1.658376e+02
  5.678819e+00    1.648117e+02
  5.681935e+00    1.641175e+02
  5.685051e+00    1.635711e+02
  5.688167e+00    1.629751e+02
  5.691283e+00    1.623924e+02
  5.694399e+00    1.619787e+02
  5.697514e+00    1.618501e+02
  5.700630e+00    1.614571e+02
  5.703746e+00    1.612245e+02
  5.706862e+00    1.608280e+02
  5.709978e+00    1.605190e+02
  5.713094e+00    1.602346e+02
  5.716210e+00    1.601655e+02
  5.719326e+00    1.603013e+02
  5.722442e+00    1.601061e+02
  5.725558e+00    1.598107e+02
  5.728674e+00    1.596963e+02
  5.731790e+00    1.596964e+02
  5.734906e+00    1.597134e+02
  5.738022e+00    1.598331e+02
  5.741138e+00    1.599229e+02
  5.744254e+00    1.597453e+02
  5.747370e+00    1.597706e+02
  5.750486e+00    1.596696e+02
  5.753602e+00    1.597233e+02
  5.756718e+00    1.597913e+02
  5.759833e+00    1.599407e+02
  5.762949e+00    1.600791e+02
  5.766065e+00    1.600426e+02
  5.769181e+00    1.600053e+02
  5.772297e+00    1.600265e+02
  5.775413e+00    1.601429e+02
  5.778529e+00    1.600855e+02
  5.781645e+00    1.603365e+02
  5.784761e+00    1.604451e+02
  5.787877e+00    1.603890e+02
  5.790993e+00    1.602325e+02
  5.794109e+00    1.602890e+02
  5.797225e+00    1.606375e+02
  5.800341e+00    1.608282e+02
  5.803457e+00    1.609748e+02
  5.806573e+00    1.610298e+02
  5.809689e+00    1.614454e+02
  5.812805e+00    1.615101e+02
  5.815921e+00    1.617399e+02
  5.819037e+00    1.618407e+02
  5.822152e+00    1.616287e+02
  5.825268e+00    1.617608e+02
  5.828384e+00    1.618630e+02
  5.831500e+00    1.619465e+02
  5.834616e+00    1.621888e+02
  5.837732e+00    1.623831e+02
  5.840848e+00    1.623475e+02
  5.843964e+00    1.625723e+02
  5.847080e+00    1.628680e+02
  5.850196e+00    1.629195e+02
  5.853312e+00    1.632560e+02
  5.856428e+00    1.634880e+02
  5.859544e+00    1.636034e+02
  5.862660e+00    1.635762e+02
  5.865776e+00    1.635890e+02
  5.868892e+00    1.637867e+02
  5.872008e+00    1.641008e+02
  5.875124e+00    1.645555e+02
  5.878240e+00    1.650879e+02
  5.881356e+00    1.652689e+02
  5.884471e+00    1.652978e+02
  5.887587e+00    1.655758e+02
  5.890703e+00    1.658462e+02
  5.893819e+00    1.660896e+02
  5.896935e+00    1.666274e+02
  5.900051e+00    1.669486e+02
  5.903167e+00    1.671323e+02
  5.906283e+00    1.675176e+02
  5.909399e+00    1.681923e+02
  5.912515e+00    1.690809e+02
  5.915631e+00    1.699437e+02
  5.918747e+00    1.712295e+02
  5.921863e+00    1.734290e+02
  5.924979e+00    1.770284e+02
  5.928095e+00    1.830572e+02
  5.931211e+00    1.933313e+02
  5.934327e+00    2.088920e+02
  5.937443e+00    2.282832e+02
  5.940559e+00    2.489557e+02
  5.943675e+00    2.653238e+02
  5.946790e+00    2.727785e+02
  5.949906e+00    2.684167e+02
  5.953022e+00    2.538004e+02
  5.956138e+00    2.349394e+02
  5.959254e+00    2.166030e+02
  5.962370e+00    2.025588e+02
  5.965486e+00    1.927171e+02
  5.968602e+00    1.867564e+02
  5.971718e+00    1.832681e+02
  5.974834e+00    1.814581e+02
  5.977950e+00    1.804017e+02
  5.981066e+00    1.799290e+02
  5.984182e+00    1.798277e+02
  5.987298e+00    1.800209e+02
  5.990414e+00    1.802307e+02
  5.993530e+00    1.806553e+02
  5.996646e+00    1.814774e+02
  5.999762e+00    1.822014e+02
  6.002878e+00    1.829018e+02
  6.005994e+00    1.833729e+02
  6.009109e+00    1.839943e+02
  6.012225e+00    1.846525e+02
  6.015341e+00    1.851843e+02
  6.018457e+00    1.858561e+02
  6.021573e+00    1.867632e+02
  6.024689e+00    1.879169e+02
  6.027805e+00    1.892833e+02
  6.030921e+00    1.909886e+02
  6.034037e+00    1.929558e+02
  6.037153e+00    1.953000e+02
  6.040269e+00    1.984384e+02
  6.043385e+00    2.024940e+02
  6.046501e+00    2.083943e+02
  6.049617e+00    2.175294e+02
  6.052733e+00    2.341212e+02
  6.055849e+00    2.647772e+02
  6.058965e+00    3.263774e+02
  6.062081e+00    4.396510e+02
  6.065197e+00    6.323306e+02
  6.068313e+00    8.930330e+02
  6.071428e+00    1.180911e+03
  6.074544e+00    1.437029e+03
  6.077660e+00    1.590643e+03
  6.080776e+00    1.608807e+03
  6.083892e+00    1.472673e+03
  6.087008e+00    1.227505e+03
  6.090124e+00    9.738180e+02
  6.093240e+00    7.423641e+02
  6.096356e+00    5.465227e+02
  6.099472e+00    3.987830e+02
  6.102588e+00    3.064439e+02
  6.105704e+00    2.563476e+02
  6.108820e+00    2.329997e+02
  6.111936e+00    2.212772e+02
  6.115052e+00    2.143947e+02
  6.118168e+00    2.095309e+02
  6.121284e+00    2.061850e+02
  6.124400e+00    2.039548e+02
  6.127516e+00    2.018967e+02
  6.130632e+00    1.993023e+02
  6.133747e+00    1.963694e+02
  6.136863e+00    1.935660e+02
  6.139979e+00    1.913235e+02
  6.143095e+00    1.895463e+02
  6.146211e+00    1.880956e+02
  6.149327e+00    1.869497e+02
  6.152443e+00    1.860389e+02
  6.155559e+00    1.853490e+02
  6.158675e+00    1.846412e+02
  6.161791e+00    1.839501e+02
  6.164907e+00    1.834251e+02
  6.168023e+00    1.830023e+02
  6.171139e+00    1.824672e+02
  6.174255e+00    1.819362e+02
  6.177371e+00    1.815527e+02
  6.180487e+00    1.809945e+02
  6.183603e+00    1.805298e+02
  6.186719e+00    1.803359e+02
  6.189835e+00    1.804133e+02
  6.192951e+00    1.804230e+02
  6.196066e+00    1.803642e+02
  6.199182e+00    1.799446e+02
  6.202298e+00    1.795327e+02
  6.205414e+00    1.791731e+02
  6.208530e+00    1.791792e+02
  6.211646e+00    1.791821e+02
  6.214762e+00    1.792367e+02
  6.217878e+00    1.793727e+02
  6.220994e+00    1.798452e+02
  6.224110e+00    1.804652e+02
  6.227226e+00    1.811557e+02
  6.230342e+00    1.822114e+02
  6.233458e+00    1.831092e+02
  6.236574e+00    1.835167e+02
  6.239690e+00    1.834248e+02
  6.242806e+00    1.829272e+02
  6.245922e+00    1.823870e+02
  6.249038e+00    1.818545e+02
  6.252154e+00    1.814774e+02
  6.255270e+00    1.810020e+02
  6.258385e+00    1.806637e+02
  6.261501e+00    1.807933e+02
  6.264617e+00    1.808497e+02
  6.267733e+00    1.808657e+02
  6.270849e+00    1.809104e+02
  6.273965e+00    1.812113e+02
  6.277081e+00    1.813430e+02
  6.280197e+00    1.811889e+02
  6.283313e+00    1.811764e+02
  6.286429e+00    1.809863e+02
  6.289545e+00    1.810642e+02
  6.292661e+00    1.813300e+02
  6.295777e+00    1.816895e+02
  6.298893e+00    1.818784e+02
  6.302009e+00    1.821903e+02
  6.305125e+00    1.826831e+02
  6.308241e+00    1.835799e+02
  6.311357e+00    1.847934e+02
  6.314473e+00    1.864798e+02
  6.317589e+00    1.897001e+02
  6.320704e+00    1.958167e+02
  6.323820e+00    2.068232e+02
  6.326936e+00    2.254864e+02
  6.330052e+00    2.532705e+02
  6.333168e+00    2.897390e+02
  6.336284e+00    3.246278e+02
  6.339400e+00    3.559465e+02
  6.342516e+00    3.631457e+02
  6.345632e+00    3.500686e+02
  6.348748e+00    3.265018e+02
  6.351864e+00    3.060927e+02
  6.354980e+00    2.900731e+02
  6.358096e+00    2.818744e+02
  6.361212e+00    2.808405e+02
  6.364328e+00    2.892508e+02
  6.367444e+00    3.068148e+02
  6.370560e+00    3.262470e+02
  6.373676e+00    3.381427e+02
  6.376792e+00    3.351740e+02
  6.379908e+00    3.166914e+02
  6.383023e+00    2.879304e+02
  6.386139e+00    2.574193e+02
  6.389255e+00    2.317420e+02
  6.392371e+00    2.140739e+02
  6.395487e+00    2.033299e+02
  6.398603e+00    1.972020e+02
  6.401719e+00    1.937713e+02
  6.404835e+00    1.913992e+02
  6.407951e+00    1.901379e+02
  6.411067e+00    1.908132e+02
  6.414183e+00    1.914309e+02
  6.417299e+00    1.923882e+02
  6.420415e+00    1.936095e+02
  6.423531e+00    1.948189e+02
  6.426647e+00    1.956489e+02
  6.429763e+00    1.970158e+02
  6.432879e+00    1.984239e+02
  6.435995e+00    1.999363e+02
  6.439111e+00    2.014948e+02
  6.442227e+00    2.034087e+02
  6.445342e+00    2.056950e+02
  6.448458e+00    2.084184e+02
  6.451574e+00    2.119060e+02
  6.454690e+00    2.163504e+02
  6.457806e+00    2.229295e+02
  6.460922e+00    2.330890e+02
  6.464038e+00    2.506209e+02
  6.467154e+00    2.826700e+02
  6.470270e+00    3.437403e+02
  6.473386e+00    4.548029e+02
  6.476502e+00    6.616273e+02
  6.479618e+00    9.398253e+02
  6.482734e+00    1.273447e+03
  6.485850e+00    1.511424e+03
  6.488966e+00    1.604217e+03
  6.492082e+00    1.544928e+03
  6.495198e+00    1.430426e+03
  6.498314e+00    1.256502e+03
  6.501430e+00    1.082285e+03
  6.504546e+00    8.845326e+02
  6.507661e+00    6.955046e+02
  6.510777e+00    5.266685e+02
  6.513893e+00    3.986863e+02
  6.517009e+00    3.175112e+02
  6.520125e+00    2.739094e+02
  6.523241e+00    2.520036e+02
  6.526357e+00    2.410627e+02
  6.529473e+00    2.353898e+02
  6.532589e+00    2.324713e+02
  6.535705e+00    2.309922e+02
  6.538821e+00    2.312648e+02
  6.541937e+00    2.335230e+02
  6.545053e+00    2.387445e+02
  6.548169e+00    2.495807e+02
  6.551285e+00    2.705634e+02
  6.554401e+00    3.109957e+02
  6.557517e+00    3.845240e+02
  6.560633e+00    5.021023e+02
  6.563749e+00    6.645790e+02
  6.566865e+00    8.560381e+02
  6.569980e+00    1.014588e+03
  6.573096e+00    1.101113e+03
  6.576212e+00    1.084157e+03
  6.579328e+00    1.008557e+03
  6.582444e+00    8.997808e+02
  6.585560e+00    8.319297e+02
  6.588676e+00    7.422739e+02
  6.591792e+00    6.023861e+02
  6.594908e+00    4.633399e+02
  6.598024e+00    3.504673e+02
  6.601140e+00    2.800128e+02
  6.604256e+00    2.401673e+02
  6.607372e+00    2.199167e+02
  6.610488e+00    2.093940e+02
  6.613604e+00    2.033376e+02
  6.616720e+00    1.989258e+02
  6.619836e+00    1.957352e+02
  6.622952e+00    1.929922e+02
  6.626068e+00    1.909735e+02
  6.629184e+00    1.895073e+02
  6.632299e+00    1.885201e+02
  6.635415e+00    1.875437e+02
  6.638531e+00    1.872262e+02
  6.641647e+00    1.872548e+02
  6.644763e+00    1.869438e+02
  6.647879e+00    1.862187e+02
  6.650995e+00    1.846120e+02
  6.654111e+00    1.823394e+02
  6.657227e+00    1.795942e+02
  6.660343e+00    1.768328e+02
  6.663459e+00    1.745163e+02
  6.666575e+00    1.740014e+02
  6.669691e+00    1.730630e+02
  6.672807e+00    1.721839e+02
  6.675923e+00    1.716215e+02
  6.679039e+00    1.710648e+02
  6.682155e+00    1.706827e+02
  6.685271e+00    1.701706e+02
  6.688387e+00    1.697339e+02
  6.691503e+00    1.692279e+02
  6.694618e+00    1.687269e+02
  6.697734e+00    1.682524e+02
  6.700850e+00    1.678163e+02
  6.703966e+00    1.674243e+02
  6.707082e+00    1.670341e+02
  6.710198e+00    1.667109e+02
  6.713314e+00    1.665358e+02
  6.716430e+00    1.661388e+02
  6.719546e+00    1.655143e+02
  6.722662e+00    1.650637e+02
  6.725778e+00    1.647409e+02
  6.728894e+00    1.644943e+02
  6.732010e+00    1.641366e+02
  6.735126e+00    1.637386e+02
  6.738242e+00    1.632559e+02
  6.741358e+00    1.628750e+02
  6.744474e+00    1.625353e+02
  6.747590e+00    1.622732e+02
  6.750706e+00    1.620727e+02
  6.753822e+00    1.618066e+02
  6.756937e+00    1.613084e+02
  6.760053e+00    1.609914e+02
  6.763169e+00    1.607191e+02
  6.766285e+00    1.603498e+02
  6.769401e+00    1.601451e+02
  6.772517e+00    1.599977e+02
  6.775633e+00    1.597066e+02
  6.778749e+00    1.593620e+02
  6.781865e+00    1.589840e+02
  6.784981e+00    1.589657e+02
  6.788097e+00    1.588575e+02
  6.791213e+00    1.587556e+02
  6.794329e+00    1.584519e+02
  6.797445e+00    1.581754e+02
  6.800561e+00    1.579620e+02
  6.803677e+00    1.578782e+02
  6.806793e+00    1.577813e+02
  6.809909e+00    1.576946e+02
  6.813025e+00    1.576958e+02
  6.816141e+00    1.574458e+02
  6.819256e+00    1.572352e+02
  6.822372e+00    1.569772e+02
  6.825488e+00    1.567891e+02
  6.828604e+00    1.566824e+02
  6.831720e+00    1.564912e+02
  6.834836e+00    1.563433e+02
  6.837952e+00    1.561760e+02
  6.841068e+00    1.562022e+02
  6.844184e+00    1.564055e+02
  6.847300e+00    1.566989e+02
  6.850416e+00    1.568248e+02
  6.853532e+00    1.569841e+02
  6.856648e+00    1.571222e+02
  6.859764e+00    1.573703e+02
  6.862880e+00    1.574144e+02
  6.865996e+00    1.576050e+02
  6.869112e+00    1.579098e+02
  6.872228e+00    1.585987e+02
  6.875344e+00    1.595871e+02
  6.878460e+00    1.612711e+02
  6.881575e+00    1.636366e+02
  6.884691e+00    1.678739e+02
  6.887807e+00    1.751406e+02
  6.890923e+00    1.876826e+02
  6.894039e+00    2.076509e+02
  6.897155e+00    2.379296e+02
  6.900271e+00    2.790547e+02
  6.903387e+00    3.283165e+02
  6.906503e+00    3.774578e+02
  6.909619e+00    4.166895e+02
  6.912735e+00    4.361997e+02
  6.915851e+00    4.309271e+02
  6.918967e+00    4.029464e+02
  6.922083e+00    3.595640e+02
  6.925199e+00    3.117585e+02
  6.928315e+00    2.675366e+02
  6.931431e+00    2.314980e+02
  6.934547e+00    2.041119e+02
  6.937663e+00    1.854420e+02
  6.940779e+00    1.734482e+02
  6.943894e+00    1.662144e+02
  6.947010e+00    1.619985e+02
  6.950126e+00    1.592206e+02
  6.953242e+00    1.572010e+02
  6.956358e+00    1.554329e+02
  6.959474e+00    1.539039e+02
  6.962590e+00    1.530329e+02
  6.965706e+00    1.521976e+02
  6.968822e+00    1.516704e+02
  6.971938e+00    1.510227e+02
  6.975054e+00    1.507534e+02
  6.978170e+00    1.502427e+02
  6.981286e+00    1.498332e+02
  6.984402e+00    1.492764e+02
  6.987518e+00    1.491393e+02
  6.990634e+00    1.489688e+02
  6.993750e+00    1.489411e+02
  6.996866e+00    1.488558e+02
  6.999982e+00    1.487803e+02
  7.003097e+00    1.488131e+02
  7.006213e+00    1.491476e+02
  7.009329e+00    1.501317e+02
  7.012445e+00    1.520758e+02
  7.015561e+00    1.554612e+02
  7.018677e+00    1.613631e+02
  7.021793e+00    1.706920e+02
  7.024909e+00    1.840566e+02
  7.028025e+00    2.001116e+02
  7.031141e+00    2.160705e+02
  7.034257e+00    2.282160e+02
  7.037373e+00    2.337076e+02
  7.040489e+00    2.303338e+02
  7.043605e+00    2.190803e+02
  7.046721e+00    2.031130e+02
  7.049837e+00    1.870137e+02
  7.052953e+00    1.735622e+02
  7.056069e+00    1.638840e+02
  7.059185e+00    1.572343e+02
  7.062301e+00    1.530658e+02
  7.065416e+00    1.504638e+02
  7.068532e+00    1.484802e+02
  7.071648e+00    1.473159e+02
  7.074764e+00    1.462520e+02
  7.077880e+00    1.455059e+02
  7.080996e+00    1.446075e+02
  7.084112e+00    1.439175e+02
  7.087228e+00    1.432731e+02
  7.090344e+00    1.427006e+02
  7.093460e+00    1.421789e+02
  7.096576e+00    1.418101e+02
  7.099692e+00    1.413448e+02
  7.102808e+00    1.413652e+02
  7.105924e+00    1.413914e+02
  7.109040e+00    1.415630e+02
  7.112156e+00    1.414388e+02
  7.115272e+00    1.411388e+02
  7.118388e+00    1.406745e+02
  7.121504e+00    1.403774e+02
  7.124620e+00    1.400844e+02
  7.127735e+00    1.398187e+02
  7.130851e+00    1.397673e+02
  7.133967e+00    1.398359e+02
  7.137083e+00    1.397200e+02
  7.140199e+00    1.395268e+02
  7.143315e+00    1.393629e+02
  7.146431e+00    1.394465e+02
  7.149547e+00    1.394344e+02
  7.152663e+00    1.391879e+02
  7.155779e+00    1.389998e+02
  7.158895e+00    1.390520e+02
  7.162011e+00    1.392140e+02
  7.165127e+00    1.394466e+02
  7.168243e+00    1.397261e+02
  7.171359e+00    1.398862e+02
  7.174475e+00    1.397357e+02
  7.177591e+00    1.399945e+02
  7.180707e+00    1.399412e+02
  7.183823e+00    1.401589e+02
  7.186939e+00    1.404129e+02
  7.190054e+00    1.411768e+02
  7.193170e+00    1.423338e+02
  7.196286e+00    1.443230e+02
  7.199402e+00    1.475394e+02
  7.202518e+00    1.536968e+02
  7.205634e+00    1.647341e+02
  7.208750e+00    1.831722e+02
  7.211866e+00    2.120088e+02
  7.214982e+00    2.498197e+02
  7.218098e+00    2.872325e+02
  7.221214e+00    3.224375e+02
  7.224330e+00    3.285764e+02
  7.227446e+00    3.174957e+02
  7.230562e+00    2.942477e+02
  7.233678e+00    2.751155e+02
  7.236794e+00    2.566537e+02
  7.239910e+00    2.357927e+02
  7.243026e+00    2.131166e+02
  7.246142e+00    1.901320e+02
  7.249258e+00    1.698284e+02
  7.252373e+00    1.547352e+02
  7.255489e+00    1.456645e+02
  7.258605e+00    1.409103e+02
  7.261721e+00    1.384099e+02
  7.264837e+00    1.367596e+02
  7.267953e+00    1.356013e+02
  7.271069e+00    1.348224e+02
  7.274185e+00    1.343198e+02
  7.277301e+00    1.341391e+02
  7.280417e+00    1.333400e+02
  7.283533e+00    1.326712e+02
  7.286649e+00    1.323342e+02
  7.289765e+00    1.321279e+02
  7.292881e+00    1.317855e+02
  7.295997e+00    1.312304e+02
  7.299113e+00    1.310536e+02
  7.302229e+00    1.307480e+02
  7.305345e+00    1.304447e+02
  7.308461e+00    1.301716e+02
  7.311577e+00    1.300180e+02
  7.314692e+00    1.300508e+02
  7.317808e+00    1.299499e+02
  7.320924e+00    1.296530e+02
  7.324040e+00    1.292598e+02
  7.327156e+00    1.291503e+02
  7.330272e+00    1.290538e+02
  7.333388e+00    1.289803e+02
  7.336504e+00    1.284986e+02
  7.339620e+00    1.283963e+02
  7.342736e+00    1.280605e+02
  7.345852e+00    1.279535e+02
  7.348968e+00    1.274665e+02
  7.352084e+00    1.271494e+02
  7.355200e+00    1.268364e+02
  7.358316e+00    1.269260e+02
  7.361432e+00    1.268981e+02
  7.364548e+00    1.267984e+02
  7.367664e+00    1.265932e+02
  7.370780e+00    1.264132e+02
  7.373896e+00    1.262173e+02
  7.377011e+00    1.261645e+02
  7.380127e+00    1.257823e+02
  7.383243e+00    1.253376e+02
  7.386359e+00    1.250288e+02
  7.389475e+00    1.248012e+02
  7.392591e+00    1.250129e+02
  7.395707e+00    1.250348e+02
  7.398823e+00    1.248652e+02
  7.401939e+00    1.245251e+02
  7.405055e+00    1.242780e+02
  7.408171e+00    1.243149e+02
  7.411287e+00    1.244731e+02
  7.414403e+00    1.244060e+02
  7.417519e+00    1.241847e+02
  7.420635e+00    1.240376e+02
  7.423751e+00    1.239241e+02
  7.426867e+00    1.238005e+02
  7.429983e+00    1.234833e+02
  7.433099e+00    1.235360e+02
  7.436215e+00    1.236448e+02
  7.439330e+00    1.236149e+02
  7.442446e+00    1.235087e+02
  7.445562e+00    1.234549e+02
  7.448678e+00    1.233777e+02
  7.451794e+00    1.232085e+02
  7.454910e+00    1.227821e+02
  7.458026e+00    1.226597e+02
  7.461142e+00    1.223920e+02
  7.464258e+00    1.224185e+02
  7.467374e+00    1.223877e+02
  7.470490e+00    1.223287e+02
  7.473606e+00    1.223899e+02
  7.476722e+00    1.224139e+02
  7.479838e+00    1.226103e+02
  7.482954e+00    1.225094e+02
  7.486070e+00    1.223972e+02
  7.489186e+00    1.223345e+02
  7.492302e+00    1.224553e+02
  7.495418e+00    1.226723e+02
  7.498534e+00    1.231658e+02
  7.501649e+00    1.244072e+02
  7.504765e+00    1.264174e+02
  7.507881e+00    1.288705e+02
  7.510997e+00    1.312187e+02
  7.514113e+00    1.336502e+02
  7.517229e+00    1.357805e+02
  7.520345e+00    1.367021e+02
  7.523461e+00    1.361353e+02
  7.526577e+00    1.340851e+02
  7.529693e+00    1.314283e+02
  7.532809e+00    1.286422e+02
  7.535925e+00    1.264003e+02
  7.539041e+00    1.247509e+02
  7.542157e+00    1.237105e+02
  7.545273e+00    1.228699e+02
  7.548389e+00    1.224420e+02
  7.551505e+00    1.224074e+02
  7.554621e+00    1.224256e+02
  7.557737e+00    1.224171e+02
  7.560853e+00    1.221418e+02
  7.563968e+00    1.221700e+02
  7.567084e+00    1.222824e+02
  7.570200e+00    1.228510e+02
  7.573316e+00    1.233267e+02
  7.576432e+00    1.238165e+02
  7.579548e+00    1.246085e+02
  7.582664e+00    1.259376e+02
  7.585780e+00    1.283661e+02
  7.588896e+00    1.325247e+02
  7.592012e+00    1.398368e+02
  7.595128e+00    1.514385e+02
  7.598244e+00    1.664178e+02
  7.601360e+00    1.842554e+02
  7.604476e+00    2.012381e+02
  7.607592e+00    2.152754e+02
  7.610708e+00    2.220405e+02
  7.613824e+00    2.209738e+02
  7.616940e+00    2.121892e+02
  7.620056e+00    1.984883e+02
  7.623172e+00    1.827474e+02
  7.626287e+00    1.670066e+02
  7.629403e+00    1.532925e+02
  7.632519e+00    1.427005e+02
  7.635635e+00    1.353195e+02
  7.638751e+00    1.311273e+02
  7.641867e+00    1.287347e+02
  7.644983e+00    1.276083e+02
  7.648099e+00    1.264497e+02
  7.651215e+00    1.249403e+02
  7.654331e+00    1.234620e+02
  7.657447e+00    1.221096e+02
  7.660563e+00    1.213883e+02
  7.663679e+00    1.209184e+02
  7.666795e+00    1.205526e+02
  7.669911e+00    1.202002e+02
  7.673027e+00    1.196798e+02
  7.676143e+00    1.194500e+02
  7.679259e+00    1.192246e+02
  7.682375e+00    1.193706e+02
  7.685491e+00    1.191612e+02
  7.688606e+00    1.189060e+02
  7.691722e+00    1.184719e+02
  7.694838e+00    1.186148e+02
  7.697954e+00    1.186267e+02
  7.701070e+00    1.186321e+02
  7.704186e+00    1.180803e+02
  7.707302e+00    1.176859e+02
  7.710418e+00    1.173555e+02
  7.713534e+00    1.174029e+02
  7.716650e+00    1.174467e+02
  7.719766e+00    1.178081e+02
  7.722882e+00    1.177473e+02
  7.725998e+00    1.175088e+02
  7.729114e+00    1.171090e+02
  7.732230e+00    1.170227e+02
  7.735346e+00    1.172826e+02
  7.738462e+00    1.172874e+02
  7.741578e+00    1.171492e+02
  7.744694e+00    1.171237e+02
  7.747810e+00    1.173101e+02
  7.750925e+00    1.170078e+02
  7.754041e+00    1.168561e+02
  7.757157e+00    1.170131e+02
  7.760273e+00    1.172960e+02
  7.763389e+00    1.173915e+02
  7.766505e+00    1.172625e+02
  7.769621e+00    1.173308e+02
  7.772737e+00    1.169821e+02
  7.775853e+00    1.168439e+02
  7.778969e+00    1.166077e+02
  7.782085e+00    1.164771e+02
  7.785201e+00    1.164010e+02
  7.788317e+00    1.162576e+02
  7.791433e+00    1.163119e+02
  7.794549e+00    1.163300e+02
  7.797665e+00    1.163704e+02
  7.800781e+00    1.160870e+02
  7.803897e+00    1.164813e+02
  7.807013e+00    1.167810e+02
  7.810129e+00    1.169515e+02
  7.813244e+00    1.162341e+02
  7.816360e+00    1.162267e+02
  7.819476e+00    1.162505e+02
  7.822592e+00    1.163595e+02
  7.825708e+00    1.160672e+02
  7.828824e+00    1.161245e+02
  7.831940e+00    1.161564e+02
  7.835056e+00    1.158923e+02
  7.838172e+00    1.155961e+02
  7.841288e+00    1.154587e+02
  7.844404e+00    1.154900e+02
  7.847520e+00    1.156319e+02
  7.850636e+00    1.161721e+02
  7.853752e+00    1.164543e+02
  7.856868e+00    1.166624e+02
  7.859984e+00    1.170729e+02
  7.863100e+00    1.177455e+02
  7.866216e+00    1.176899e+02
  7.869332e+00    1.176046e+02
  7.872448e+00    1.172785e+02
  7.875563e+00    1.170456e+02
  7.878679e+00    1.167038e+02
  7.881795e+00    1.164770e+02
  7.884911e+00    1.164169e+02
  7.888027e+00    1.163347e+02
  7.891143e+00    1.164584e+02
  7.894259e+00    1.166262e+02
  7.897375e+00    1.167030e+02
  7.900491e+00    1.167496e+02
  7.903607e+00    1.166241e+02
  7.906723e+00    1.166310e+02
  7.909839e+00    1.168701e+02
  7.912955e+00    1.170036e+02
  7.916071e+00    1.167626e+02
  7.919187e+00    1.163818e+02
  7.922303e+00    1.160915e+02
  7.925419e+00    1.158033e+02
  7.928535e+00    1.154903e+02
  7.931651e+00    1.155441e+02
  7.934767e+00    1.155393e+02
  7.937882e+00    1.156135e+02
  7.940998e+00    1.157202e+02
  7.944114e+00    1.158161e+02
  7.947230e+00    1.158677e+02
  7.950346e+00    1.155163e+02
  7.953462e+00    1.155822e+02
  7.956578e+00    1.152818e+02
  7.959694e+00    1.151324e+02
  7.962810e+00    1.150596e+02
  7.965926e+00    1.154372e+02
  7.969042e+00    1.159395e+02
  7.972158e+00    1.159998e+02
  7.975274e+00    1.158911e+02
  7.978390e+00    1.158031e+02
  7.981506e+00    1.157427e+02
  7.984622e+00    1.156428e+02
  7.987738e+00    1.156929e+02
  7.990854e+00    1.156527e+02
  7.993970e+00    1.159878e+02
  7.997086e+00    1.160233e+02
  8.000201e+00    1.157619e+02
  8.003317e+00    1.154656e+02
  8.006433e+00    1.153792e+02
  8.009549e+00    1.158771e+02
  8.012665e+00    1.160284e+02
  8.015781e+00    1.162231e+02
  8.018897e+00    1.160920e+02
  8.022013e+00    1.162748e+02
  8.025129e+00    1.164381e+02
  8.028245e+00    1.166825e+02
  8.031361e+00    1.167038e+02
  8.034477e+00    1.171205e+02
  8.037593e+00    1.170781e+02
  8.040709e+00    1.172120e+02
  8.043825e+00    1.171367e+02
  8.046941e+00    1.168731e+02
  8.050057e+00    1.170068e+02
  8.053173e+00    1.171662e+02
  8.056289e+00    1.174515e+02
  8.059405e+00    1.176565e+02
  8.062520e+00    1.178972e+02
  8.065636e+00    1.185153e+02
  8.068752e+00    1.188882e+02
  8.071868e+00    1.192175e+02
  8.074984e+00    1.197283e+02
  8.078100e+00    1.208036e+02
  8.081216e+00    1.224678e+02
  8.084332e+00    1.239479e+02
  8.087448e+00    1.249340e+02
  8.090564e+00    1.251410e+02
  8.093680e+00    1.251797e+02
  8.096796e+00    1.246982e+02
  8.099912e+00    1.240921e+02
  8.103028e+00    1.233000e+02
  8.106144e+00    1.227129e+02
  8.109260e+00    1.221289e+02
  8.112376e+00    1.217920e+02
  8.115492e+00    1.215582e+02
  8.118608e+00    1.214515e+02
  8.121724e+00    1.211912e+02
  8.124839e+00    1.214502e+02
  8.127955e+00    1.218003e+02
  8.131071e+00    1.224510e+02
  8.134187e+00    1.226904e+02
  8.137303e+00    1.231788e+02
  8.140419e+00    1.231730e+02
  8.143535e+00    1.235503e+02
  8.146651e+00    1.233361e+02
  8.149767e+00    1.235931e+02
  8.152883e+00    1.242225e+02
  8.155999e+00    1.252897e+02
  8.159115e+00    1.262131e+02
  8.162231e+00    1.276123e+02
  8.165347e+00    1.301156e+02
  8.168463e+00    1.333116e+02
  8.171579e+00    1.390089e+02
  8.174695e+00    1.491245e+02
  8.177811e+00    1.659102e+02
  8.180927e+00    1.913001e+02
  8.184043e+00    2.265861e+02
  8.187158e+00    2.688871e+02
  8.190274e+00    3.139089e+02
  8.193390e+00    3.451490e+02
  8.196506e+00    3.541652e+02
  8.199622e+00    3.412119e+02
  8.202738e+00    3.187925e+02
  8.205854e+00    2.981909e+02
  8.208970e+00    2.794231e+02
  8.212086e+00    2.611068e+02
  8.215202e+00    2.369694e+02
  8.218318e+00    2.110846e+02
  8.221434e+00    1.858267e+02
  8.224550e+00    1.636848e+02
  8.227666e+00    1.479498e+02
  8.230782e+00    1.386008e+02
  8.233898e+00    1.332640e+02
  8.237014e+00    1.305235e+02
  8.240130e+00    1.290107e+02
  8.243246e+00    1.280810e+02
  8.246362e+00    1.276118e+02
  8.249477e+00    1.268742e+02
  8.252593e+00    1.262921e+02
  8.255709e+00    1.256456e+02
  8.258825e+00    1.259790e+02
  8.261941e+00    1.257882e+02
  8.265057e+00    1.254786e+02
  8.268173e+00    1.251000e+02
  8.271289e+00    1.244133e+02
  8.274405e+00    1.241746e+02
  8.277521e+00    1.238727e+02
  8.280637e+00    1.243230e+02
  8.283753e+00    1.242883e+02
  8.286869e+00    1.243997e+02
  8.289985e+00    1.242381e+02
  8.293101e+00    1.239342e+02
  8.296217e+00    1.240223e+02
  8.299333e+00    1.240306e+02
  8.302449e+00    1.241497e+02
  8.305565e+00    1.235899e+02
  8.308681e+00    1.236419e+02
  8.311796e+00    1.233829e+02
  8.314912e+00    1.237344e+02
  8.318028e+00    1.239038e+02
  8.321144e+00    1.243188e+02
  8.324260e+00    1.244998e+02
  8.327376e+00    1.243706e+02
  8.330492e+00    1.243741e+02
  8.333608e+00    1.245655e+02
  8.336724e+00    1.248616e+02
  8.339840e+00    1.250722e+02
  8.342956e+00    1.251798e+02
  8.346072e+00    1.252503e+02
  8.349188e+00    1.252799e+02
  8.352304e+00    1.255148e+02
  8.355420e+00    1.260258e+02
  8.358536e+00    1.263579e+02
  8.361652e+00    1.264803e+02
  8.364768e+00    1.274907e+02
  8.367884e+00    1.290837e+02
  8.371000e+00    1.315656e+02
  8.374115e+00    1.353787e+02
  8.377231e+00    1.403495e+02
  8.380347e+00    1.470644e+02
  8.383463e+00    1.560340e+02
  8.386579e+00    1.659685e+02
  8.389695e+00    1.740612e+02
  8.392811e+00    1.798329e+02
  8.395927e+00    1.808521e+02
  8.399043e+00    1.782868e+02
  8.402159e+00    1.745926e+02
  8.405275e+00    1.716857e+02
  8.408391e+00    1.693066e+02
  8.411507e+00    1.672716e+02
  8.414623e+00    1.631711e+02
  8.417739e+00    1.577562e+02
  8.420855e+00    1.516984e+02
  8.423971e+00    1.459483e+02
  8.427087e+00    1.411238e+02
  8.430203e+00    1.372023e+02
  8.433319e+00    1.340078e+02
  8.436434e+00    1.317312e+02
  8.439550e+00    1.308131e+02
  8.442666e+00    1.301971e+02
  8.445782e+00    1.296975e+02
  8.448898e+00    1.290585e+02
  8.452014e+00    1.289852e+02
  8.455130e+00    1.291867e+02
  8.458246e+00    1.289014e+02
  8.461362e+00    1.289848e+02
  8.464478e+00    1.288142e+02
  8.467594e+00    1.289313e+02
  8.470710e+00    1.284352e+02
  8.473826e+00    1.283761e+02
  8.476942e+00    1.282677e+02
  8.480058e+00    1.287661e+02
  8.483174e+00    1.291515e+02
  8.486290e+00    1.296839e+02
  8.489406e+00    1.300173e+02
  8.492522e+00    1.302420e+02
  8.495638e+00    1.307729e+02
  8.498753e+00    1.311345e+02
  8.501869e+00    1.317610e+02
  8.504985e+00    1.317401e+02
  8.508101e+00    1.316453e+02
  8.511217e+00    1.319884e+02
  8.514333e+00    1.327661e+02
  8.517449e+00    1.335087e+02
  8.520565e+00    1.334978e+02
  8.523681e+00    1.341883e+02
  8.526797e+00    1.357413e+02
  8.529913e+00    1.377771e+02
  8.533029e+00    1.395584e+02
  8.536145e+00    1.416827e+02
  8.539261e+00    1.447655e+02
  8.542377e+00    1.495932e+02
  8.545493e+00    1.575623e+02
  8.548609e+00    1.705855e+02
  8.551725e+00    1.927958e+02
  8.554841e+00    2.355655e+02
  8.557957e+00    3.002383e+02
  8.561072e+00    3.888116e+02
  8.564188e+00    5.103156e+02
  8.567304e+00    5.435384e+02
  8.570420e+00    5.438718e+02
  8.573536e+00    4.690653e+02
  8.576652e+00    4.218335e+02
  8.579768e+00    3.738446e+02
  8.582884e+00    3.296034e+02
  8.586000e+00    2.981110e+02
  8.589116e+00    2.741073e+02
  8.592232e+00    2.515191e+02
  8.595348e+00    2.274908e+02
  8.598464e+00    2.020125e+02
  8.601580e+00    1.822980e+02
  8.604696e+00    1.683404e+02
  8.607812e+00    1.624056e+02
  8.610928e+00    1.616630e+02
  8.614044e+00    1.623197e+02
  8.617160e+00    1.630734e+02
  8.620276e+00    1.627603e+02
  8.623391e+00    1.612588e+02
  8.626507e+00    1.582902e+02
  8.629623e+00    1.531182e+02
  8.632739e+00    1.478961e+02
  8.635855e+00    1.429827e+02
  8.638971e+00    1.393801e+02
  8.642087e+00    1.365760e+02
  8.645203e+00    1.343825e+02
  8.648319e+00    1.328217e+02
  8.651435e+00    1.312392e+02
  8.654551e+00    1.301955e+02
  8.657667e+00    1.295126e+02
  8.660783e+00    1.289897e+02
  8.663899e+00    1.287373e+02
  8.667015e+00    1.282927e+02
  8.670131e+00    1.286335e+02
  8.673247e+00    1.284968e+02
  8.676363e+00    1.279992e+02
  8.679479e+00    1.270772e+02
  8.682595e+00    1.268437e+02
  8.685710e+00    1.268727e+02
  8.688826e+00    1.273660e+02
  8.691942e+00    1.280352e+02
  8.695058e+00    1.290644e+02
  8.698174e+00    1.299208e+02
  8.701290e+00    1.313212e+02
  8.704406e+00    1.346774e+02
  8.707522e+00    1.393134e+02
  8.710638e+00    1.453599e+02
  8.713754e+00    1.523833e+02
  8.716870e+00    1.602376e+02
  8.719986e+00    1.670596e+02
  8.723102e+00    1.716604e+02
  8.726218e+00    1.726338e+02
  8.729334e+00    1.700789e+02
  8.732450e+00    1.648208e+02
  8.735566e+00    1.572512e+02
  8.738682e+00    1.495818e+02
  8.741798e+00    1.420043e+02
  8.744914e+00    1.361456e+02
  8.748029e+00    1.322638e+02
  8.751145e+00    1.291164e+02
  8.754261e+00    1.267616e+02
  8.757377e+00    1.250476e+02
  8.760493e+00    1.244184e+02
  8.763609e+00    1.239213e+02
  8.766725e+00    1.238211e+02
  8.769841e+00    1.238771e+02
  8.772957e+00    1.239614e+02
  8.776073e+00    1.238231e+02
  8.779189e+00    1.242081e+02
  8.782305e+00    1.242995e+02
  8.785421e+00    1.243607e+02
  8.788537e+00    1.239796e+02
  8.791653e+00    1.238410e+02
  8.794769e+00    1.241711e+02
  8.797885e+00    1.244872e+02
  8.801001e+00    1.254721e+02
  8.804117e+00    1.262556e+02
  8.807233e+00    1.273708e+02
  8.810348e+00    1.301852e+02
  8.813464e+00    1.356000e+02
  8.816580e+00    1.436369e+02
  8.819696e+00    1.559320e+02
  8.822812e+00    1.746432e+02
  8.825928e+00    1.967100e+02
  8.829044e+00    2.248337e+02
  8.832160e+00    2.500642e+02
  8.835276e+00    2.648190e+02
  8.838392e+00    2.701901e+02
  8.841508e+00    2.640739e+02
  8.844624e+00    2.543447e+02
  8.847740e+00    2.432574e+02
  8.850856e+00    2.310133e+02
  8.853972e+00    2.152790e+02
  8.857088e+00    1.974043e+02
  8.860204e+00    1.763602e+02
  8.863320e+00    1.574978e+02
  8.866436e+00    1.424199e+02
  8.869552e+00    1.316713e+02
  8.872667e+00    1.249589e+02
  8.875783e+00    1.217831e+02
  8.878899e+00    1.199298e+02
  8.882015e+00    1.178558e+02
  8.885131e+00    1.159517e+02
  8.888247e+00    1.148269e+02
  8.891363e+00    1.147213e+02
  8.894479e+00    1.140998e+02
  8.897595e+00    1.137332e+02
  8.900711e+00    1.140915e+02
  8.903827e+00    1.134225e+02
  8.906943e+00    1.131083e+02
  8.910059e+00    1.122990e+02
  8.913175e+00    1.128940e+02
  8.916291e+00    1.122656e+02
  8.919407e+00    1.115731e+02
  8.922523e+00    1.111544e+02
  8.925639e+00    1.113520e+02
  8.928755e+00    1.111804e+02
  8.931871e+00    1.105255e+02
  8.934986e+00    1.097125e+02
  8.938102e+00    1.095895e+02
  8.941218e+00    1.097685e+02
  8.944334e+00    1.101196e+02
  8.947450e+00    1.099552e+02
  8.950566e+00    1.094373e+02
  8.953682e+00    1.083774e+02
  8.956798e+00    1.080226e+02
  8.959914e+00    1.087001e+02
  8.963030e+00    1.088213e+02
  8.966146e+00    1.086574e+02
  8.969262e+00    1.091518e+02
  8.972378e+00    1.095120e+02
  8.975494e+00    1.092014e+02
  8.978610e+00    1.084546e+02
  8.981726e+00    1.087263e+02
  8.984842e+00    1.087093e+02
  8.987958e+00    1.080265e+02
  8.991074e+00    1.074113e+02
  8.994190e+00    1.071188e+02
  8.997305e+00    1.069442e+02
  9.000421e+00    1.060520e+02
  9.003537e+00    1.056567e+02
  9.006653e+00    1.058560e+02
  9.009769e+00    1.063217e+02
  9.012885e+00    1.052867e+02
  9.016001e+00    1.049130e+02
  9.019117e+00    1.049564e+02
  9.022233e+00    1.053543e+02
  9.025349e+00    1.044068e+02
  9.028465e+00    1.036184e+02
  9.031581e+00    1.028865e+02
  9.034697e+00    1.025212e+02
  9.037813e+00    1.014515e+02
  9.040929e+00    1.008252e+02
  9.044045e+00    9.978431e+01
  9.047161e+00    9.891987e+01
  9.050277e+00    9.792916e+01
  9.053393e+00    9.796324e+01
  9.056509e+00    9.860372e+01
  9.059624e+00    1.009622e+02
  9.062740e+00    1.040602e+02
  9.065856e+00    1.083424e+02
  9.068972e+00    1.144510e+02
  9.072088e+00    1.245186e+02
  9.075204e+00    1.350949e+02
  9.078320e+00    1.448338e+02
  9.081436e+00    1.521729e+02
  9.084552e+00    1.515780e+02
  9.087668e+00    1.451290e+02
  9.090784e+00    1.368669e+02
  9.093900e+00    1.297137e+02
  9.097016e+00    1.277528e+02
  9.100132e+00    1.268563e+02
  9.103248e+00    1.247851e+02
  9.106364e+00    1.203036e+02
  9.109480e+00    1.158278e+02
  9.112596e+00    1.107022e+02
  9.115712e+00    1.078486e+02
  9.118828e+00    1.080533e+02
  9.121943e+00    1.093457e+02
  9.125059e+00    1.095030e+02
  9.128175e+00    1.084377e+02
  9.131291e+00    1.075294e+02
  9.134407e+00    1.048419e+02
  9.137523e+00    1.008447e+02
  9.140639e+00    9.798161e+01
  9.143755e+00    9.501848e+01
  9.146871e+00    9.181105e+01
  9.149987e+00    9.020781e+01
  9.153103e+00    8.805798e+01
  9.156219e+00    8.639643e+01
  9.159335e+00    8.615267e+01
  9.162451e+00    8.755788e+01
  9.165567e+00    8.804681e+01
  9.168683e+00    8.753831e+01
  9.171799e+00    8.848758e+01
  9.174915e+00    8.889780e+01
  9.178031e+00    9.018711e+01
  9.181147e+00    9.205234e+01
  9.184262e+00    9.447333e+01
  9.187378e+00    9.504133e+01
  9.190494e+00    9.666045e+01
  9.193610e+00    9.958016e+01
  9.196726e+00    1.040069e+02
  9.199842e+00    1.080185e+02
  9.202958e+00    1.151677e+02
  9.206074e+00    1.227093e+02
  9.209190e+00    1.376706e+02
  9.212306e+00    1.577584e+02
  9.215422e+00    1.711443e+02
  9.218538e+00    1.847127e+02
  9.221654e+00    1.865836e+02
  9.224770e+00    1.806392e+02
  9.227886e+00    1.727309e+02
  9.231002e+00    1.535360e+02
  9.234118e+00    1.407656e+02
  9.237234e+00    1.300345e+02
  9.240350e+00    1.178476e+02
  9.243466e+00    9.926775e+01
  9.246581e+00    9.403044e+01
  9.249697e+00    9.070609e+01
  9.252813e+00    8.858226e+01
  9.255929e+00    8.367348e+01
  9.259045e+00    8.052380e+01
  9.262161e+00    7.737010e+01
  9.265277e+00    7.767917e+01
  9.268393e+00    7.574724e+01
  9.271509e+00    7.331875e+01
  9.274625e+00    6.511826e+01
  9.277741e+00    6.182682e+01
  9.280857e+00    5.861504e+01
  9.283973e+00    5.468171e+01
  9.287089e+00    4.975629e+01
  9.290205e+00    4.586563e+01
  9.293321e+00    4.194383e+01
  9.296437e+00    3.645236e+01
  9.299553e+00    3.449659e+01
  9.302669e+00    3.166149e+01
  9.305785e+00    2.615124e+01
  9.308900e+00    2.255281e+01
  9.312016e+00    1.951689e+01
  9.315132e+00    1.507577e+01
  9.318248e+00    2.248032e+00
  9.321364e+00   -1.126453e+00
  9.324480e+00   -3.069950e+00
  9.327596e+00   -2.190317e+00
  9.330712e+00   -2.627522e+00
  9.333828e+00   -1.548281e+00
  9.336944e+00    4.150421e+00
  9.340060e+00    6.983940e+00
  9.343176e+00    6.505895e+00
  9.346292e+00    0.000000e+00
