# == pyFAI calibration ==
# SplineFile: None
# PixelSize: 2.000e-04, 2.000e-04 m
# PONI: 1.995e-01, 2.016e-01 m
# Distance Sample to Detector: 1.79502286468 m
# Rotations: -0.004483 0.004646 0.000019 rad
# 
# == Fit2d calibration ==
# Distance Sample-beamCenter: 1795.060 mm
# Center: x=1048.052, y=1039.198 pix
# Tilt: 0.370 deg  TiltPlanRot: 46.021 deg
# 
# Wavelength: 1.4235e-11
# Polarization factor: None
# Normalization factor: 1.0
# --> /Volumes/desy/desy_2018/TiAlNi/TiAlNi_1-00301.txt
#       2th_deg             I 
  1.557975e-03    7.729527e+00
  4.673925e-03    3.121318e+00
  7.789875e-03   -5.480830e-01
  1.090582e-02   -3.998388e+00
  1.402177e-02   -1.371418e+00
  1.713772e-02    1.159132e+00
  2.025367e-02    1.784609e+00
  2.336962e-02    2.161648e+00
  2.648557e-02    4.179696e+00
  2.960152e-02    6.049803e+00
  3.271747e-02    7.972106e+00
  3.583342e-02    8.061395e+00
  3.894937e-02    6.657709e+00
  4.206532e-02    4.866946e+00
  4.518127e-02    5.965633e+00
  4.829722e-02    6.272589e+00
  5.141317e-02    6.606582e+00
  5.452912e-02    6.697601e+00
  5.764507e-02    4.799119e+00
  6.076102e-02    3.517283e+00
  6.387697e-02    3.162618e+00
  6.699292e-02    4.954280e+00
  7.010887e-02    5.255909e+00
  7.322482e-02    5.405343e+00
  7.634077e-02    4.356354e+00
  7.945672e-02    2.075592e+00
  8.257267e-02    1.060231e+00
  8.568862e-02    1.515012e+00
  8.880457e-02    1.973343e+00
  9.192052e-02    2.949690e+00
  9.503647e-02    3.408627e+00
  9.815242e-02    3.270172e+00
  1.012684e-01    3.815918e+00
  1.043843e-01    5.044223e+00
  1.075003e-01    5.414305e+00
  1.106162e-01    5.039602e+00
  1.137322e-01    5.830784e+00
  1.168481e-01    5.714501e+00
  1.199641e-01    4.943059e+00
  1.230800e-01    4.608788e+00
  1.261960e-01    5.645691e+00
  1.293119e-01    7.276181e+00
  1.324279e-01    7.274799e+00
  1.355438e-01    5.675572e+00
  1.386598e-01    4.791089e+00
  1.417757e-01    4.753424e+00
  1.448917e-01    5.284014e+00
  1.480076e-01    6.034907e+00
  1.511236e-01    7.589720e+00
  1.542395e-01    8.766141e+00
  1.573555e-01    9.862293e+00
  1.604714e-01    1.035532e+01
  1.635874e-01    1.037420e+01
  1.667033e-01    1.219641e+01
  1.698193e-01    1.596200e+01
  1.729352e-01    1.838321e+01
  1.760512e-01    2.010028e+01
  1.791671e-01    2.123366e+01
  1.822831e-01    2.250321e+01
  1.853990e-01    2.535936e+01
  1.885150e-01    2.679174e+01
  1.916309e-01    2.887040e+01
  1.947469e-01    3.095869e+01
  1.978628e-01    3.339528e+01
  2.009788e-01    3.527535e+01
  2.040947e-01    3.687933e+01
  2.072107e-01    3.803183e+01
  2.103266e-01    3.944558e+01
  2.134426e-01    4.039126e+01
  2.165585e-01    4.198630e+01
  2.196745e-01    4.443260e+01
  2.227904e-01    4.640126e+01
  2.259064e-01    4.853382e+01
  2.290223e-01    5.086233e+01
  2.321383e-01    5.287604e+01
  2.352542e-01    5.454512e+01
  2.383702e-01    5.652824e+01
  2.414861e-01    5.814387e+01
  2.446021e-01    6.011976e+01
  2.477180e-01    6.192493e+01
  2.508340e-01    5.860941e+01
  2.539499e-01    5.814098e+01
  2.570659e-01    6.156640e+01
  2.601818e-01    6.538039e+01
  2.632978e-01    6.806656e+01
  2.664137e-01    6.963303e+01
  2.695297e-01    7.200140e+01
  2.726456e-01    7.467883e+01
  2.757616e-01    7.704025e+01
  2.788775e-01    7.902251e+01
  2.819935e-01    8.043491e+01
  2.851094e-01    8.192634e+01
  2.882254e-01    8.303651e+01
  2.913413e-01    8.494136e+01
  2.944573e-01    8.649609e+01
  2.975732e-01    8.826890e+01
  3.006892e-01    8.965267e+01
  3.038051e-01    9.090235e+01
  3.069211e-01    9.098624e+01
  3.100370e-01    9.177620e+01
  3.131530e-01    9.330888e+01
  3.162689e-01    9.433805e+01
  3.193849e-01    9.489283e+01
  3.225008e-01    9.624371e+01
  3.256168e-01    9.791036e+01
  3.287327e-01    9.932570e+01
  3.318487e-01    1.016306e+02
  3.349646e-01    1.036622e+02
  3.380806e-01    1.054485e+02
  3.411965e-01    1.065702e+02
  3.443125e-01    1.087844e+02
  3.474284e-01    1.104650e+02
  3.505444e-01    1.116382e+02
  3.536603e-01    1.134018e+02
  3.567763e-01    1.154297e+02
  3.598922e-01    1.175190e+02
  3.630082e-01    1.191974e+02
  3.661241e-01    1.200056e+02
  3.692401e-01    1.214934e+02
  3.723560e-01    1.238909e+02
  3.754720e-01    1.264059e+02
  3.785879e-01    1.281204e+02
  3.817039e-01    1.290302e+02
  3.848198e-01    1.303546e+02
  3.879358e-01    1.318215e+02
  3.910517e-01    1.330651e+02
  3.941677e-01    1.345801e+02
  3.972836e-01    1.357452e+02
  4.003996e-01    1.378384e+02
  4.035155e-01    1.396004e+02
  4.066315e-01    1.419366e+02
  4.097474e-01    1.436793e+02
  4.128634e-01    1.450258e+02
  4.159793e-01    1.469223e+02
  4.190953e-01    1.489320e+02
  4.222112e-01    1.508979e+02
  4.253272e-01    1.529299e+02
  4.284431e-01    1.545452e+02
  4.315591e-01    1.555674e+02
  4.346750e-01    1.571156e+02
  4.377910e-01    1.599419e+02
  4.409069e-01    1.624966e+02
  4.440229e-01    1.650025e+02
  4.471388e-01    1.665526e+02
  4.502548e-01    1.678379e+02
  4.533707e-01    1.693836e+02
  4.564867e-01    1.716106e+02
  4.596026e-01    1.737908e+02
  4.627186e-01    1.754733e+02
  4.658345e-01    1.779228e+02
  4.689505e-01    1.800374e+02
  4.720664e-01    1.824864e+02
  4.751824e-01    1.841505e+02
  4.782983e-01    1.857883e+02
  4.814143e-01    1.874321e+02
  4.845302e-01    1.885363e+02
  4.876462e-01    1.903724e+02
  4.907621e-01    1.909253e+02
  4.938781e-01    1.916975e+02
  4.969940e-01    1.921491e+02
  5.001100e-01    1.917072e+02
  5.032259e-01    1.912818e+02
  5.063419e-01    1.912428e+02
  5.094578e-01    1.924712e+02
  5.125738e-01    1.930405e+02
  5.156897e-01    1.930714e+02
  5.188057e-01    1.925170e+02
  5.219216e-01    1.920376e+02
  5.250376e-01    1.924510e+02
  5.281535e-01    1.933890e+02
  5.312695e-01    1.943245e+02
  5.343854e-01    1.949170e+02
  5.375014e-01    1.947238e+02
  5.406173e-01    1.949509e+02
  5.437333e-01    1.959867e+02
  5.468492e-01    1.965862e+02
  5.499652e-01    1.972325e+02
  5.530811e-01    1.974645e+02
  5.561971e-01    1.974037e+02
  5.593130e-01    1.974175e+02
  5.624290e-01    1.974514e+02
  5.655449e-01    1.972665e+02
  5.686609e-01    1.963155e+02
  5.717768e-01    1.960470e+02
  5.748928e-01    1.956563e+02
  5.780087e-01    1.953080e+02
  5.811247e-01    1.945552e+02
  5.842406e-01    1.945616e+02
  5.873566e-01    1.939758e+02
  5.904725e-01    1.931501e+02
  5.935885e-01    1.930378e+02
  5.967044e-01    1.925676e+02
  5.998204e-01    1.926384e+02
  6.029363e-01    1.928071e+02
  6.060523e-01    1.936580e+02
  6.091682e-01    1.932054e+02
  6.122842e-01    1.932769e+02
  6.154001e-01    1.931951e+02
  6.185161e-01    1.932500e+02
  6.216320e-01    1.930054e+02
  6.247480e-01    1.931486e+02
  6.278639e-01    1.932919e+02
  6.309799e-01    1.928936e+02
  6.340958e-01    1.920570e+02
  6.372118e-01    1.921410e+02
  6.403277e-01    1.928685e+02
  6.434437e-01    1.929646e+02
  6.465596e-01    1.930493e+02
  6.496756e-01    1.920171e+02
  6.527915e-01    1.921372e+02
  6.559075e-01    1.913575e+02
  6.590234e-01    1.919525e+02
  6.621394e-01    1.915793e+02
  6.652553e-01    1.923652e+02
  6.683713e-01    1.914550e+02
  6.714872e-01    1.905143e+02
  6.746032e-01    1.900955e+02
  6.777191e-01    1.903633e+02
  6.808351e-01    1.908472e+02
  6.839510e-01    1.906058e+02
  6.870670e-01    1.903568e+02
  6.901829e-01    1.902494e+02
  6.932989e-01    1.907443e+02
  6.964148e-01    1.905437e+02
  6.995308e-01    1.902747e+02
  7.026467e-01    1.898163e+02
  7.057627e-01    1.896816e+02
  7.088786e-01    1.890696e+02
  7.119946e-01    1.891616e+02
  7.151105e-01    1.894319e+02
  7.182265e-01    1.901058e+02
  7.213424e-01    1.899679e+02
  7.244584e-01    1.896217e+02
  7.275743e-01    1.885877e+02
  7.306903e-01    1.883847e+02
  7.338062e-01    1.885875e+02
  7.369222e-01    1.884591e+02
  7.400381e-01    1.879725e+02
  7.431541e-01    1.882285e+02
  7.462700e-01    1.885046e+02
  7.493860e-01    1.885667e+02
  7.525019e-01    1.875764e+02
  7.556179e-01    1.869257e+02
  7.587338e-01    1.864361e+02
  7.618498e-01    1.864789e+02
  7.649657e-01    1.863268e+02
  7.680817e-01    1.853089e+02
  7.711976e-01    1.845931e+02
  7.743136e-01    1.836009e+02
  7.774295e-01    1.834406e+02
  7.805455e-01    1.834581e+02
  7.836614e-01    1.835551e+02
  7.867774e-01    1.831535e+02
  7.898933e-01    1.830340e+02
  7.930093e-01    1.826929e+02
  7.961252e-01    1.831293e+02
  7.992412e-01    1.834243e+02
  8.023571e-01    1.835188e+02
  8.054731e-01    1.824278e+02
  8.085890e-01    1.814528e+02
  8.117050e-01    1.805983e+02
  8.148209e-01    1.804583e+02
  8.179369e-01    1.792139e+02
  8.210528e-01    1.791104e+02
  8.241688e-01    1.795145e+02
  8.272847e-01    1.797645e+02
  8.304007e-01    1.796220e+02
  8.335166e-01    1.794513e+02
  8.366326e-01    1.788536e+02
  8.397485e-01    1.786289e+02
  8.428645e-01    1.787974e+02
  8.459804e-01    1.785146e+02
  8.490964e-01    1.776536e+02
  8.522123e-01    1.771353e+02
  8.553283e-01    1.766610e+02
  8.584442e-01    1.760603e+02
  8.615602e-01    1.755505e+02
  8.646761e-01    1.754241e+02
  8.677921e-01    1.752931e+02
  8.709080e-01    1.749110e+02
  8.740240e-01    1.748398e+02
  8.771399e-01    1.743410e+02
  8.802559e-01    1.737513e+02
  8.833718e-01    1.733015e+02
  8.864878e-01    1.733305e+02
  8.896037e-01    1.730610e+02
  8.927197e-01    1.728408e+02
  8.958356e-01    1.722951e+02
  8.989516e-01    1.725270e+02
  9.020675e-01    1.718529e+02
  9.051835e-01    1.715454e+02
  9.082994e-01    1.712340e+02
  9.114154e-01    1.711797e+02
  9.145313e-01    1.707845e+02
  9.176473e-01    1.705068e+02
  9.207632e-01    1.694039e+02
  9.238792e-01    1.690263e+02
  9.269951e-01    1.689915e+02
  9.301111e-01    1.692988e+02
  9.332270e-01    1.689346e+02
  9.363430e-01    1.687717e+02
  9.394589e-01    1.684115e+02
  9.425749e-01    1.680321e+02
  9.456908e-01    1.677010e+02
  9.488068e-01    1.674034e+02
  9.519227e-01    1.668275e+02
  9.550387e-01    1.667449e+02
  9.581546e-01    1.668674e+02
  9.612706e-01    1.668291e+02
  9.643865e-01    1.661049e+02
  9.675025e-01    1.651912e+02
  9.706184e-01    1.643540e+02
  9.737344e-01    1.640459e+02
  9.768503e-01    1.639915e+02
  9.799663e-01    1.639159e+02
  9.830822e-01    1.638010e+02
  9.861982e-01    1.634244e+02
  9.893141e-01    1.625985e+02
  9.924301e-01    1.625181e+02
  9.955460e-01    1.627063e+02
  9.986620e-01    1.623831e+02
  1.001778e+00    1.618934e+02
  1.004894e+00    1.609002e+02
  1.008010e+00    1.601151e+02
  1.011126e+00    1.594531e+02
  1.014242e+00    1.591118e+02
  1.017358e+00    1.589324e+02
  1.020474e+00    1.587611e+02
  1.023590e+00    1.582647e+02
  1.026706e+00    1.576677e+02
  1.029821e+00    1.574556e+02
  1.032937e+00    1.570031e+02
  1.036053e+00    1.565026e+02
  1.039169e+00    1.555977e+02
  1.042285e+00    1.557189e+02
  1.045401e+00    1.558668e+02
  1.048517e+00    1.558971e+02
  1.051633e+00    1.554449e+02
  1.054749e+00    1.548150e+02
  1.057865e+00    1.545185e+02
  1.060981e+00    1.546343e+02
  1.064097e+00    1.544467e+02
  1.067213e+00    1.540779e+02
  1.070329e+00    1.533785e+02
  1.073445e+00    1.531100e+02
  1.076561e+00    1.525779e+02
  1.079677e+00    1.525582e+02
  1.082793e+00    1.518959e+02
  1.085909e+00    1.516437e+02
  1.089025e+00    1.514173e+02
  1.092140e+00    1.513429e+02
  1.095256e+00    1.508523e+02
  1.098372e+00    1.507458e+02
  1.101488e+00    1.501427e+02
  1.104604e+00    1.495007e+02
  1.107720e+00    1.487897e+02
  1.110836e+00    1.489254e+02
  1.113952e+00    1.492000e+02
  1.117068e+00    1.487704e+02
  1.120184e+00    1.480072e+02
  1.123300e+00    1.472902e+02
  1.126416e+00    1.469836e+02
  1.129532e+00    1.469370e+02
  1.132648e+00    1.473251e+02
  1.135764e+00    1.471003e+02
  1.138880e+00    1.463739e+02
  1.141996e+00    1.456469e+02
  1.145112e+00    1.453837e+02
  1.148228e+00    1.454559e+02
  1.151344e+00    1.456376e+02
  1.154459e+00    1.449913e+02
  1.157575e+00    1.443768e+02
  1.160691e+00    1.442786e+02
  1.163807e+00    1.444379e+02
  1.166923e+00    1.446854e+02
  1.170039e+00    1.445721e+02
  1.173155e+00    1.442406e+02
  1.176271e+00    1.433695e+02
  1.179387e+00    1.427057e+02
  1.182503e+00    1.421643e+02
  1.185619e+00    1.421267e+02
  1.188735e+00    1.416282e+02
  1.191851e+00    1.412039e+02
  1.194967e+00    1.407463e+02
  1.198083e+00    1.404770e+02
  1.201199e+00    1.406704e+02
  1.204315e+00    1.407738e+02
  1.207431e+00    1.409096e+02
  1.210547e+00    1.408435e+02
  1.213663e+00    1.406816e+02
  1.216778e+00    1.406534e+02
  1.219894e+00    1.410046e+02
  1.223010e+00    1.412498e+02
  1.226126e+00    1.407997e+02
  1.229242e+00    1.401575e+02
  1.232358e+00    1.396769e+02
  1.235474e+00    1.393828e+02
  1.238590e+00    1.393467e+02
  1.241706e+00    1.392115e+02
  1.244822e+00    1.388001e+02
  1.247938e+00    1.385960e+02
  1.251054e+00    1.380550e+02
  1.254170e+00    1.379878e+02
  1.257286e+00    1.373695e+02
  1.260402e+00    1.368662e+02
  1.263518e+00    1.362529e+02
  1.266634e+00    1.361220e+02
  1.269750e+00    1.358216e+02
  1.272866e+00    1.358530e+02
  1.275982e+00    1.362515e+02
  1.279097e+00    1.359950e+02
  1.282213e+00    1.354071e+02
  1.285329e+00    1.351922e+02
  1.288445e+00    1.348211e+02
  1.291561e+00    1.344449e+02
  1.294677e+00    1.342097e+02
  1.297793e+00    1.341274e+02
  1.300909e+00    1.339936e+02
  1.304025e+00    1.338586e+02
  1.307141e+00    1.334976e+02
  1.310257e+00    1.331780e+02
  1.313373e+00    1.333455e+02
  1.316489e+00    1.337328e+02
  1.319605e+00    1.347166e+02
  1.322721e+00    1.354665e+02
  1.325837e+00    1.358500e+02
  1.328953e+00    1.354826e+02
  1.332069e+00    1.344632e+02
  1.335185e+00    1.332984e+02
  1.338301e+00    1.322994e+02
  1.341416e+00    1.320566e+02
  1.344532e+00    1.315354e+02
  1.347648e+00    1.309518e+02
  1.350764e+00    1.304066e+02
  1.353880e+00    1.303367e+02
  1.356996e+00    1.301540e+02
  1.360112e+00    1.298903e+02
  1.363228e+00    1.293730e+02
  1.366344e+00    1.290511e+02
  1.369460e+00    1.286599e+02
  1.372576e+00    1.287235e+02
  1.375692e+00    1.283902e+02
  1.378808e+00    1.285157e+02
  1.381924e+00    1.285414e+02
  1.385040e+00    1.284691e+02
  1.388156e+00    1.279705e+02
  1.391272e+00    1.278710e+02
  1.394388e+00    1.276172e+02
  1.397504e+00    1.276932e+02
  1.400619e+00    1.274795e+02
  1.403735e+00    1.272307e+02
  1.406851e+00    1.269936e+02
  1.409967e+00    1.269728e+02
  1.413083e+00    1.264949e+02
  1.416199e+00    1.264398e+02
  1.419315e+00    1.264670e+02
  1.422431e+00    1.262965e+02
  1.425547e+00    1.259231e+02
  1.428663e+00    1.256354e+02
  1.431779e+00    1.254122e+02
  1.434895e+00    1.250627e+02
  1.438011e+00    1.245900e+02
  1.441127e+00    1.243278e+02
  1.444243e+00    1.247458e+02
  1.447359e+00    1.248327e+02
  1.450475e+00    1.243807e+02
  1.453591e+00    1.237469e+02
  1.456707e+00    1.232794e+02
  1.459823e+00    1.229536e+02
  1.462938e+00    1.228207e+02
  1.466054e+00    1.225065e+02
  1.469170e+00    1.223542e+02
  1.472286e+00    1.220582e+02
  1.475402e+00    1.222084e+02
  1.478518e+00    1.223419e+02
  1.481634e+00    1.223737e+02
  1.484750e+00    1.221915e+02
  1.487866e+00    1.219927e+02
  1.490982e+00    1.220183e+02
  1.494098e+00    1.220184e+02
  1.497214e+00    1.221605e+02
  1.500330e+00    1.222310e+02
  1.503446e+00    1.221192e+02
  1.506562e+00    1.213441e+02
  1.509678e+00    1.203815e+02
  1.512794e+00    1.198423e+02
  1.515910e+00    1.199311e+02
  1.519026e+00    1.202954e+02
  1.522142e+00    1.199562e+02
  1.525257e+00    1.194739e+02
  1.528373e+00    1.189048e+02
  1.531489e+00    1.185760e+02
  1.534605e+00    1.180879e+02
  1.537721e+00    1.183349e+02
  1.540837e+00    1.187506e+02
  1.543953e+00    1.188441e+02
  1.547069e+00    1.188860e+02
  1.550185e+00    1.186137e+02
  1.553301e+00    1.183967e+02
  1.556417e+00    1.185592e+02
  1.559533e+00    1.187543e+02
  1.562649e+00    1.187201e+02
  1.565765e+00    1.184683e+02
  1.568881e+00    1.184995e+02
  1.571997e+00    1.189735e+02
  1.575113e+00    1.196284e+02
  1.578229e+00    1.205413e+02
  1.581345e+00    1.218857e+02
  1.584461e+00    1.222443e+02
  1.587576e+00    1.210888e+02
  1.590692e+00    1.193622e+02
  1.593808e+00    1.181939e+02
  1.596924e+00    1.181729e+02
  1.600040e+00    1.189202e+02
  1.603156e+00    1.198579e+02
  1.606272e+00    1.214594e+02
  1.609388e+00    1.224136e+02
  1.612504e+00    1.221752e+02
  1.615620e+00    1.209080e+02
  1.618736e+00    1.197060e+02
  1.621852e+00    1.183443e+02
  1.624968e+00    1.176268e+02
  1.628084e+00    1.182748e+02
  1.631200e+00    1.210555e+02
  1.634316e+00    1.269736e+02
  1.637432e+00    1.364509e+02
  1.640548e+00    1.482084e+02
  1.643664e+00    1.572657e+02
  1.646780e+00    1.582083e+02
  1.649895e+00    1.508141e+02
  1.653011e+00    1.393604e+02
  1.656127e+00    1.283437e+02
  1.659243e+00    1.213038e+02
  1.662359e+00    1.174359e+02
  1.665475e+00    1.157594e+02
  1.668591e+00    1.146892e+02
  1.671707e+00    1.139428e+02
  1.674823e+00    1.136348e+02
  1.677939e+00    1.134483e+02
  1.681055e+00    1.136454e+02
  1.684171e+00    1.135736e+02
  1.687287e+00    1.133269e+02
  1.690403e+00    1.128005e+02
  1.693519e+00    1.126641e+02
  1.696635e+00    1.123911e+02
  1.699751e+00    1.121348e+02
  1.702867e+00    1.121661e+02
  1.705983e+00    1.123318e+02
  1.709099e+00    1.127436e+02
  1.712214e+00    1.134254e+02
  1.715330e+00    1.140328e+02
  1.718446e+00    1.144057e+02
  1.721562e+00    1.143468e+02
  1.724678e+00    1.144964e+02
  1.727794e+00    1.148918e+02
  1.730910e+00    1.162952e+02
  1.734026e+00    1.183963e+02
  1.737142e+00    1.219847e+02
  1.740258e+00    1.263105e+02
  1.743374e+00    1.297778e+02
  1.746490e+00    1.312195e+02
  1.749606e+00    1.303801e+02
  1.752722e+00    1.270415e+02
  1.755838e+00    1.228453e+02
  1.758954e+00    1.188648e+02
  1.762070e+00    1.155993e+02
  1.765186e+00    1.134193e+02
  1.768302e+00    1.119116e+02
  1.771418e+00    1.110545e+02
  1.774533e+00    1.111344e+02
  1.777649e+00    1.112590e+02
  1.780765e+00    1.114150e+02
  1.783881e+00    1.117445e+02
  1.786997e+00    1.124470e+02
  1.790113e+00    1.146390e+02
  1.793229e+00    1.179608e+02
  1.796345e+00    1.215131e+02
  1.799461e+00    1.234918e+02
  1.802577e+00    1.245223e+02
  1.805693e+00    1.231790e+02
  1.808809e+00    1.200282e+02
  1.811925e+00    1.156460e+02
  1.815041e+00    1.128012e+02
  1.818157e+00    1.111955e+02
  1.821273e+00    1.108927e+02
  1.824389e+00    1.108347e+02
  1.827505e+00    1.110281e+02
  1.830621e+00    1.110797e+02
  1.833737e+00    1.108633e+02
  1.836852e+00    1.106948e+02
  1.839968e+00    1.106858e+02
  1.843084e+00    1.106637e+02
  1.846200e+00    1.105608e+02
  1.849316e+00    1.110761e+02
  1.852432e+00    1.129975e+02
  1.855548e+00    1.173995e+02
  1.858664e+00    1.284834e+02
  1.861780e+00    1.518707e+02
  1.864896e+00    1.943199e+02
  1.868012e+00    2.465636e+02
  1.871128e+00    2.881163e+02
  1.874244e+00    2.965321e+02
  1.877360e+00    2.653525e+02
  1.880476e+00    2.139269e+02
  1.883592e+00    1.655804e+02
  1.886708e+00    1.347941e+02
  1.889824e+00    1.199125e+02
  1.892940e+00    1.132919e+02
  1.896056e+00    1.104969e+02
  1.899171e+00    1.093235e+02
  1.902287e+00    1.093004e+02
  1.905403e+00    1.102717e+02
  1.908519e+00    1.117546e+02
  1.911635e+00    1.128321e+02
  1.914751e+00    1.134429e+02
  1.917867e+00    1.135550e+02
  1.920983e+00    1.124320e+02
  1.924099e+00    1.103883e+02
  1.927215e+00    1.085297e+02
  1.930331e+00    1.074051e+02
  1.933447e+00    1.071312e+02
  1.936563e+00    1.068224e+02
  1.939679e+00    1.063552e+02
  1.942795e+00    1.062341e+02
  1.945911e+00    1.058954e+02
  1.949027e+00    1.055736e+02
  1.952143e+00    1.053883e+02
  1.955259e+00    1.056005e+02
  1.958375e+00    1.057300e+02
  1.961490e+00    1.062457e+02
  1.964606e+00    1.079036e+02
  1.967722e+00    1.108086e+02
  1.970838e+00    1.151032e+02
  1.973954e+00    1.206464e+02
  1.977070e+00    1.257685e+02
  1.980186e+00    1.282078e+02
  1.983302e+00    1.276584e+02
  1.986418e+00    1.237290e+02
  1.989534e+00    1.184683e+02
  1.992650e+00    1.132030e+02
  1.995766e+00    1.097594e+02
  1.998882e+00    1.077935e+02
  2.001998e+00    1.066298e+02
  2.005114e+00    1.058444e+02
  2.008230e+00    1.051379e+02
  2.011346e+00    1.044029e+02
  2.014462e+00    1.041576e+02
  2.017578e+00    1.047384e+02
  2.020694e+00    1.050922e+02
  2.023809e+00    1.051267e+02
  2.026925e+00    1.052506e+02
  2.030041e+00    1.060150e+02
  2.033157e+00    1.071530e+02
  2.036273e+00    1.083053e+02
  2.039389e+00    1.095495e+02
  2.042505e+00    1.111454e+02
  2.045621e+00    1.134165e+02
  2.048737e+00    1.170201e+02
  2.051853e+00    1.223023e+02
  2.054969e+00    1.270333e+02
  2.058085e+00    1.290421e+02
  2.061201e+00    1.266482e+02
  2.064317e+00    1.211397e+02
  2.067433e+00    1.147176e+02
  2.070549e+00    1.098799e+02
  2.073665e+00    1.066853e+02
  2.076781e+00    1.048272e+02
  2.079897e+00    1.040854e+02
  2.083013e+00    1.041989e+02
  2.086128e+00    1.047751e+02
  2.089244e+00    1.050240e+02
  2.092360e+00    1.053679e+02
  2.095476e+00    1.054292e+02
  2.098592e+00    1.048975e+02
  2.101708e+00    1.036412e+02
  2.104824e+00    1.026209e+02
  2.107940e+00    1.022730e+02
  2.111056e+00    1.022804e+02
  2.114172e+00    1.024441e+02
  2.117288e+00    1.024902e+02
  2.120404e+00    1.021063e+02
  2.123520e+00    1.020986e+02
  2.126636e+00    1.021545e+02
  2.129752e+00    1.023452e+02
  2.132868e+00    1.020563e+02
  2.135984e+00    1.020001e+02
  2.139100e+00    1.017852e+02
  2.142216e+00    1.018271e+02
  2.145332e+00    1.018869e+02
  2.148447e+00    1.017969e+02
  2.151563e+00    1.014253e+02
  2.154679e+00    1.015937e+02
  2.157795e+00    1.020413e+02
  2.160911e+00    1.026047e+02
  2.164027e+00    1.027509e+02
  2.167143e+00    1.028040e+02
  2.170259e+00    1.025796e+02
  2.173375e+00    1.021735e+02
  2.176491e+00    1.020674e+02
  2.179607e+00    1.021849e+02
  2.182723e+00    1.020665e+02
  2.185839e+00    1.021676e+02
  2.188955e+00    1.021590e+02
  2.192071e+00    1.023125e+02
  2.195187e+00    1.022130e+02
  2.198303e+00    1.019468e+02
  2.201419e+00    1.019106e+02
  2.204535e+00    1.020657e+02
  2.207651e+00    1.024135e+02
  2.210766e+00    1.023238e+02
  2.213882e+00    1.023005e+02
  2.216998e+00    1.023455e+02
  2.220114e+00    1.027367e+02
  2.223230e+00    1.025141e+02
  2.226346e+00    1.027401e+02
  2.229462e+00    1.030429e+02
  2.232578e+00    1.035048e+02
  2.235694e+00    1.040352e+02
  2.238810e+00    1.047883e+02
  2.241926e+00    1.057527e+02
  2.245042e+00    1.063644e+02
  2.248158e+00    1.071839e+02
  2.251274e+00    1.074969e+02
  2.254390e+00    1.076948e+02
  2.257506e+00    1.077959e+02
  2.260622e+00    1.086243e+02
  2.263738e+00    1.091563e+02
  2.266854e+00    1.098096e+02
  2.269970e+00    1.117053e+02
  2.273085e+00    1.179620e+02
  2.276201e+00    1.326310e+02
  2.279317e+00    1.657976e+02
  2.282433e+00    2.326266e+02
  2.285549e+00    3.429591e+02
  2.288665e+00    4.726948e+02
  2.291781e+00    5.699857e+02
  2.294897e+00    5.846469e+02
  2.298013e+00    5.094137e+02
  2.301129e+00    3.871706e+02
  2.304245e+00    2.700762e+02
  2.307361e+00    1.897182e+02
  2.310477e+00    1.455524e+02
  2.313593e+00    1.240212e+02
  2.316709e+00    1.140028e+02
  2.319825e+00    1.096867e+02
  2.322941e+00    1.078208e+02
  2.326057e+00    1.076775e+02
  2.329173e+00    1.082205e+02
  2.332289e+00    1.098729e+02
  2.335404e+00    1.127867e+02
  2.338520e+00    1.169047e+02
  2.341636e+00    1.206393e+02
  2.344752e+00    1.231763e+02
  2.347868e+00    1.234032e+02
  2.350984e+00    1.211653e+02
  2.354100e+00    1.180488e+02
  2.357216e+00    1.162540e+02
  2.360332e+00    1.162472e+02
  2.363448e+00    1.181342e+02
  2.366564e+00    1.199482e+02
  2.369680e+00    1.203611e+02
  2.372796e+00    1.187759e+02
  2.375912e+00    1.152868e+02
  2.379028e+00    1.113741e+02
  2.382144e+00    1.076779e+02
  2.385260e+00    1.052548e+02
  2.388376e+00    1.033136e+02
  2.391492e+00    1.022966e+02
  2.394608e+00    1.018622e+02
  2.397723e+00    1.017187e+02
  2.400839e+00    1.016879e+02
  2.403955e+00    1.018976e+02
  2.407071e+00    1.019693e+02
  2.410187e+00    1.017021e+02
  2.413303e+00    1.015789e+02
  2.416419e+00    1.015247e+02
  2.419535e+00    1.016203e+02
  2.422651e+00    1.014512e+02
  2.425767e+00    1.012222e+02
  2.428883e+00    1.013606e+02
  2.431999e+00    1.012895e+02
  2.435115e+00    1.010650e+02
  2.438231e+00    1.009249e+02
  2.441347e+00    1.014303e+02
  2.444463e+00    1.018563e+02
  2.447579e+00    1.020963e+02
  2.450695e+00    1.018605e+02
  2.453811e+00    1.020842e+02
  2.456927e+00    1.022298e+02
  2.460042e+00    1.025285e+02
  2.463158e+00    1.028465e+02
  2.466274e+00    1.033926e+02
  2.469390e+00    1.036248e+02
  2.472506e+00    1.039187e+02
  2.475622e+00    1.048653e+02
  2.478738e+00    1.070986e+02
  2.481854e+00    1.107139e+02
  2.484970e+00    1.150807e+02
  2.488086e+00    1.187595e+02
  2.491202e+00    1.207182e+02
  2.494318e+00    1.201481e+02
  2.497434e+00    1.172434e+02
  2.500550e+00    1.130225e+02
  2.503666e+00    1.089345e+02
  2.506782e+00    1.060489e+02
  2.509898e+00    1.042123e+02
  2.513014e+00    1.028621e+02
  2.516130e+00    1.018511e+02
  2.519246e+00    1.018253e+02
  2.522361e+00    1.021093e+02
  2.525477e+00    1.023061e+02
  2.528593e+00    1.024223e+02
  2.531709e+00    1.021539e+02
  2.534825e+00    1.018646e+02
  2.537941e+00    1.016466e+02
  2.541057e+00    1.014669e+02
  2.544173e+00    1.014286e+02
  2.547289e+00    1.015263e+02
  2.550405e+00    1.015412e+02
  2.553521e+00    1.015861e+02
  2.556637e+00    1.018165e+02
  2.559753e+00    1.020974e+02
  2.562869e+00    1.019861e+02
  2.565985e+00    1.019306e+02
  2.569101e+00    1.021017e+02
  2.572217e+00    1.022456e+02
  2.575333e+00    1.023028e+02
  2.578449e+00    1.025650e+02
  2.581565e+00    1.027879e+02
  2.584680e+00    1.028283e+02
  2.587796e+00    1.030130e+02
  2.590912e+00    1.033172e+02
  2.594028e+00    1.037814e+02
  2.597144e+00    1.039471e+02
  2.600260e+00    1.041929e+02
  2.603376e+00    1.043179e+02
  2.606492e+00    1.044023e+02
  2.609608e+00    1.049402e+02
  2.612724e+00    1.059886e+02
  2.615840e+00    1.070742e+02
  2.618956e+00    1.081401e+02
  2.622072e+00    1.088021e+02
  2.625188e+00    1.086959e+02
  2.628304e+00    1.081208e+02
  2.631420e+00    1.071032e+02
  2.634536e+00    1.063550e+02
  2.637652e+00    1.060396e+02
  2.640768e+00    1.063535e+02
  2.643884e+00    1.074083e+02
  2.646999e+00    1.089465e+02
  2.650115e+00    1.100383e+02
  2.653231e+00    1.098906e+02
  2.656347e+00    1.090928e+02
  2.659463e+00    1.081943e+02
  2.662579e+00    1.073238e+02
  2.665695e+00    1.066957e+02
  2.668811e+00    1.063494e+02
  2.671927e+00    1.060329e+02
  2.675043e+00    1.060085e+02
  2.678159e+00    1.062156e+02
  2.681275e+00    1.063656e+02
  2.684391e+00    1.067654e+02
  2.687507e+00    1.073605e+02
  2.690623e+00    1.086309e+02
  2.693739e+00    1.106908e+02
  2.696855e+00    1.139882e+02
  2.699971e+00    1.184749e+02
  2.703087e+00    1.235601e+02
  2.706203e+00    1.278736e+02
  2.709318e+00    1.298871e+02
  2.712434e+00    1.287893e+02
  2.715550e+00    1.253367e+02
  2.718666e+00    1.209031e+02
  2.721782e+00    1.169628e+02
  2.724898e+00    1.139945e+02
  2.728014e+00    1.124398e+02
  2.731130e+00    1.118747e+02
  2.734246e+00    1.119109e+02
  2.737362e+00    1.118267e+02
  2.740478e+00    1.116851e+02
  2.743594e+00    1.114418e+02
  2.746710e+00    1.110535e+02
  2.749826e+00    1.108278e+02
  2.752942e+00    1.108231e+02
  2.756058e+00    1.110034e+02
  2.759174e+00    1.110077e+02
  2.762290e+00    1.111610e+02
  2.765406e+00    1.117637e+02
  2.768522e+00    1.122410e+02
  2.771637e+00    1.126244e+02
  2.774753e+00    1.132713e+02
  2.777869e+00    1.141128e+02
  2.780985e+00    1.154779e+02
  2.784101e+00    1.169650e+02
  2.787217e+00    1.182423e+02
  2.790333e+00    1.187456e+02
  2.793449e+00    1.186409e+02
  2.796565e+00    1.181439e+02
  2.799681e+00    1.178518e+02
  2.802797e+00    1.178607e+02
  2.805913e+00    1.182332e+02
  2.809029e+00    1.193073e+02
  2.812145e+00    1.219662e+02
  2.815261e+00    1.269917e+02
  2.818377e+00    1.346712e+02
  2.821493e+00    1.446339e+02
  2.824609e+00    1.535835e+02
  2.827725e+00    1.577469e+02
  2.830841e+00    1.550737e+02
  2.833956e+00    1.472160e+02
  2.837072e+00    1.386653e+02
  2.840188e+00    1.328406e+02
  2.843304e+00    1.306311e+02
  2.846420e+00    1.310797e+02
  2.849536e+00    1.323721e+02
  2.852652e+00    1.330487e+02
  2.855768e+00    1.330650e+02
  2.858884e+00    1.317562e+02
  2.862000e+00    1.295966e+02
  2.865116e+00    1.270073e+02
  2.868232e+00    1.250588e+02
  2.871348e+00    1.238186e+02
  2.874464e+00    1.232307e+02
  2.877580e+00    1.232405e+02
  2.880696e+00    1.234149e+02
  2.883812e+00    1.235638e+02
  2.886928e+00    1.236029e+02
  2.890044e+00    1.237630e+02
  2.893160e+00    1.237015e+02
  2.896275e+00    1.234768e+02
  2.899391e+00    1.233026e+02
  2.902507e+00    1.231448e+02
  2.905623e+00    1.228546e+02
  2.908739e+00    1.227963e+02
  2.911855e+00    1.229382e+02
  2.914971e+00    1.233104e+02
  2.918087e+00    1.237883e+02
  2.921203e+00    1.241599e+02
  2.924319e+00    1.246199e+02
  2.927435e+00    1.252854e+02
  2.930551e+00    1.263867e+02
  2.933667e+00    1.279870e+02
  2.936783e+00    1.303737e+02
  2.939899e+00    1.340770e+02
  2.943015e+00    1.405044e+02
  2.946131e+00    1.513884e+02
  2.949247e+00    1.690231e+02
  2.952363e+00    1.935999e+02
  2.955479e+00    2.217582e+02
  2.958594e+00    2.427515e+02
  2.961710e+00    2.457450e+02
  2.964826e+00    2.287365e+02
  2.967942e+00    1.995401e+02
  2.971058e+00    1.714216e+02
  2.974174e+00    1.519007e+02
  2.977290e+00    1.414024e+02
  2.980406e+00    1.366896e+02
  2.983522e+00    1.346457e+02
  2.986638e+00    1.341770e+02
  2.989754e+00    1.342713e+02
  2.992870e+00    1.346962e+02
  2.995986e+00    1.351618e+02
  2.999102e+00    1.356089e+02
  3.002218e+00    1.362385e+02
  3.005334e+00    1.370600e+02
  3.008450e+00    1.379774e+02
  3.011566e+00    1.388858e+02
  3.014682e+00    1.402141e+02
  3.017798e+00    1.417390e+02
  3.020913e+00    1.428934e+02
  3.024029e+00    1.437000e+02
  3.027145e+00    1.436336e+02
  3.030261e+00    1.430626e+02
  3.033377e+00    1.426067e+02
  3.036493e+00    1.424000e+02
  3.039609e+00    1.419065e+02
  3.042725e+00    1.415744e+02
  3.045841e+00    1.417986e+02
  3.048957e+00    1.419150e+02
  3.052073e+00    1.422692e+02
  3.055189e+00    1.428283e+02
  3.058305e+00    1.436911e+02
  3.061421e+00    1.446266e+02
  3.064537e+00    1.456423e+02
  3.067653e+00    1.471806e+02
  3.070769e+00    1.494836e+02
  3.073885e+00    1.521962e+02
  3.077001e+00    1.547181e+02
  3.080117e+00    1.571309e+02
  3.083232e+00    1.586081e+02
  3.086348e+00    1.593211e+02
  3.089464e+00    1.588660e+02
  3.092580e+00    1.579819e+02
  3.095696e+00    1.575027e+02
  3.098812e+00    1.570978e+02
  3.101928e+00    1.573387e+02
  3.105044e+00    1.581813e+02
  3.108160e+00    1.595384e+02
  3.111276e+00    1.609097e+02
  3.114392e+00    1.626837e+02
  3.117508e+00    1.644556e+02
  3.120624e+00    1.661379e+02
  3.123740e+00    1.680305e+02
  3.126856e+00    1.701729e+02
  3.129972e+00    1.728717e+02
  3.133088e+00    1.770222e+02
  3.136204e+00    1.825696e+02
  3.139320e+00    1.925032e+02
  3.142436e+00    2.104631e+02
  3.145551e+00    2.527286e+02
  3.148667e+00    3.395464e+02
  3.151783e+00    5.591472e+02
  3.154899e+00    8.800732e+02
  3.158015e+00    1.368088e+03
  3.161131e+00    1.847799e+03
  3.164247e+00    2.003662e+03
  3.167363e+00    2.071946e+03
  3.170479e+00    1.770557e+03
  3.173595e+00    1.360324e+03
  3.176711e+00    9.193926e+02
  3.179827e+00    5.825056e+02
  3.182943e+00    3.833091e+02
  3.186059e+00    3.009019e+02
  3.189175e+00    2.663559e+02
  3.192291e+00    2.525447e+02
  3.195407e+00    2.453305e+02
  3.198523e+00    2.409876e+02
  3.201639e+00    2.386085e+02
  3.204755e+00    2.387664e+02
  3.207870e+00    2.426191e+02
  3.210986e+00    2.499118e+02
  3.214102e+00    2.590487e+02
  3.217218e+00    2.671619e+02
  3.220334e+00    2.703063e+02
  3.223450e+00    2.655338e+02
  3.226566e+00    2.537846e+02
  3.229682e+00    2.382823e+02
  3.232798e+00    2.234058e+02
  3.235914e+00    2.116354e+02
  3.239030e+00    2.042411e+02
  3.242146e+00    2.008796e+02
  3.245262e+00    1.994088e+02
  3.248378e+00    1.982055e+02
  3.251494e+00    1.964911e+02
  3.254610e+00    1.946150e+02
  3.257726e+00    1.927924e+02
  3.260842e+00    1.912802e+02
  3.263958e+00    1.907157e+02
  3.267074e+00    1.905321e+02
  3.270189e+00    1.908142e+02
  3.273305e+00    1.911337e+02
  3.276421e+00    1.913870e+02
  3.279537e+00    1.912404e+02
  3.282653e+00    1.916613e+02
  3.285769e+00    1.922318e+02
  3.288885e+00    1.929124e+02
  3.292001e+00    1.933721e+02
  3.295117e+00    1.937048e+02
  3.298233e+00    1.938578e+02
  3.301349e+00    1.946068e+02
  3.304465e+00    1.958696e+02
  3.307581e+00    1.979518e+02
  3.310697e+00    2.006624e+02
  3.313813e+00    2.036092e+02
  3.316929e+00    2.058606e+02
  3.320045e+00    2.069142e+02
  3.323161e+00    2.066635e+02
  3.326277e+00    2.058990e+02
  3.329393e+00    2.047695e+02
  3.332508e+00    2.038824e+02
  3.335624e+00    2.036217e+02
  3.338740e+00    2.037518e+02
  3.341856e+00    2.045566e+02
  3.344972e+00    2.056080e+02
  3.348088e+00    2.066018e+02
  3.351204e+00    2.073440e+02
  3.354320e+00    2.083179e+02
  3.357436e+00    2.097179e+02
  3.360552e+00    2.114039e+02
  3.363668e+00    2.130332e+02
  3.366784e+00    2.148959e+02
  3.369900e+00    2.166996e+02
  3.373016e+00    2.186879e+02
  3.376132e+00    2.205125e+02
  3.379248e+00    2.226333e+02
  3.382364e+00    2.252671e+02
  3.385480e+00    2.280448e+02
  3.388596e+00    2.309021e+02
  3.391712e+00    2.342510e+02
  3.394827e+00    2.379251e+02
  3.397943e+00    2.414613e+02
  3.401059e+00    2.451706e+02
  3.404175e+00    2.489253e+02
  3.407291e+00    2.532667e+02
  3.410407e+00    2.577621e+02
  3.413523e+00    2.628562e+02
  3.416639e+00    2.694034e+02
  3.419755e+00    2.785181e+02
  3.422871e+00    2.910387e+02
  3.425987e+00    3.155786e+02
  3.429103e+00    3.616818e+02
  3.432219e+00    4.711699e+02
  3.435335e+00    6.671439e+02
  3.438451e+00    1.076891e+03
  3.441567e+00    1.493841e+03
  3.444683e+00    1.819842e+03
  3.447799e+00    1.867337e+03
  3.450915e+00    1.618848e+03
  3.454031e+00    1.373319e+03
  3.457146e+00    1.135016e+03
  3.460262e+00    9.368690e+02
  3.463378e+00    7.856564e+02
  3.466494e+00    8.830157e+02
  3.469610e+00    1.121391e+03
  3.472726e+00    1.635491e+03
  3.475842e+00    2.493691e+03
  3.478958e+00    3.611673e+03
  3.482074e+00    4.710842e+03
  3.485190e+00    5.425847e+03
  3.488306e+00    5.561209e+03
  3.491422e+00    5.403205e+03
  3.494538e+00    5.346604e+03
  3.497654e+00    5.668161e+03
  3.500770e+00    6.069723e+03
  3.503886e+00    6.086058e+03
  3.507002e+00    5.398475e+03
  3.510118e+00    4.139851e+03
  3.513234e+00    2.756794e+03
  3.516350e+00    1.679311e+03
  3.519465e+00    1.025006e+03
  3.522581e+00    6.994135e+02
  3.525697e+00    5.483442e+02
  3.528813e+00    4.813127e+02
  3.531929e+00    4.524152e+02
  3.535045e+00    4.412905e+02
  3.538161e+00    4.351099e+02
  3.541277e+00    4.251304e+02
  3.544393e+00    4.087323e+02
  3.547509e+00    3.882391e+02
  3.550625e+00    3.691625e+02
  3.553741e+00    3.561620e+02
  3.556857e+00    3.488776e+02
  3.559973e+00    3.466099e+02
  3.563089e+00    3.482472e+02
  3.566205e+00    3.542660e+02
  3.569321e+00    3.644732e+02
  3.572437e+00    3.798709e+02
  3.575553e+00    4.040120e+02
  3.578669e+00    4.477393e+02
  3.581784e+00    5.355018e+02
  3.584900e+00    7.322426e+02
  3.588016e+00    1.180275e+03
  3.591132e+00    2.175708e+03
  3.594248e+00    3.712866e+03
  3.597364e+00    5.803798e+03
  3.600480e+00    7.415019e+03
  3.603596e+00    8.121196e+03
  3.606712e+00    7.536812e+03
  3.609828e+00    6.252066e+03
  3.612944e+00    4.742040e+03
  3.616060e+00    3.115408e+03
  3.619176e+00    1.825790e+03
  3.622292e+00    1.125896e+03
  3.625408e+00    7.765964e+02
  3.628524e+00    6.346127e+02
  3.631640e+00    5.710767e+02
  3.634756e+00    5.364426e+02
  3.637872e+00    5.137260e+02
  3.640988e+00    5.006170e+02
  3.644103e+00    4.980379e+02
  3.647219e+00    5.088880e+02
  3.650335e+00    5.334946e+02
  3.653451e+00    5.658271e+02
  3.656567e+00    5.926420e+02
  3.659683e+00    5.994951e+02
  3.662799e+00    5.780342e+02
  3.665915e+00    5.305559e+02
  3.669031e+00    4.672693e+02
  3.672147e+00    4.018305e+02
  3.675263e+00    3.450207e+02
  3.678379e+00    3.010627e+02
  3.681495e+00    2.715935e+02
  3.684611e+00    2.536565e+02
  3.687727e+00    2.432099e+02
  3.690843e+00    2.370808e+02
  3.693959e+00    2.329031e+02
  3.697075e+00    2.298907e+02
  3.700191e+00    2.268983e+02
  3.703307e+00    2.240666e+02
  3.706422e+00    2.217628e+02
  3.709538e+00    2.201188e+02
  3.712654e+00    2.191770e+02
  3.715770e+00    2.187274e+02
  3.718886e+00    2.193246e+02
  3.722002e+00    2.219956e+02
  3.725118e+00    2.292338e+02
  3.728234e+00    2.486813e+02
  3.731350e+00    2.949135e+02
  3.734466e+00    3.945774e+02
  3.737582e+00    5.677891e+02
  3.740698e+00    8.059031e+02
  3.743814e+00    1.038807e+03
  3.746930e+00    1.162695e+03
  3.750046e+00    1.108508e+03
  3.753162e+00    9.078602e+02
  3.756278e+00    6.604803e+02
  3.759394e+00    4.470164e+02
  3.762510e+00    3.148505e+02
  3.765626e+00    2.476915e+02
  3.768741e+00    2.171356e+02
  3.771857e+00    2.027210e+02
  3.774973e+00    1.953587e+02
  3.778089e+00    1.909593e+02
  3.781205e+00    1.879813e+02
  3.784321e+00    1.856490e+02
  3.787437e+00    1.839299e+02
  3.790553e+00    1.826534e+02
  3.793669e+00    1.816954e+02
  3.796785e+00    1.811935e+02
  3.799901e+00    1.805969e+02
  3.803017e+00    1.804204e+02
  3.806133e+00    1.805394e+02
  3.809249e+00    1.823189e+02
  3.812365e+00    1.866879e+02
  3.815481e+00    1.951351e+02
  3.818597e+00    2.092860e+02
  3.821713e+00    2.297268e+02
  3.824829e+00    2.535123e+02
  3.827945e+00    2.752119e+02
  3.831060e+00    2.882224e+02
  3.834176e+00    2.881571e+02
  3.837292e+00    2.756644e+02
  3.840408e+00    2.550058e+02
  3.843524e+00    2.322039e+02
  3.846640e+00    2.121156e+02
  3.849756e+00    1.964933e+02
  3.852872e+00    1.855004e+02
  3.855988e+00    1.779581e+02
  3.859104e+00    1.735520e+02
  3.862220e+00    1.712244e+02
  3.865336e+00    1.699519e+02
  3.868452e+00    1.687197e+02
  3.871568e+00    1.671860e+02
  3.874684e+00    1.654429e+02
  3.877800e+00    1.633896e+02
  3.880916e+00    1.614044e+02
  3.884032e+00    1.597218e+02
  3.887148e+00    1.583351e+02
  3.890264e+00    1.571262e+02
  3.893379e+00    1.564348e+02
  3.896495e+00    1.560947e+02
  3.899611e+00    1.555803e+02
  3.902727e+00    1.550277e+02
  3.905843e+00    1.546271e+02
  3.908959e+00    1.543841e+02
  3.912075e+00    1.538274e+02
  3.915191e+00    1.533358e+02
  3.918307e+00    1.531588e+02
  3.921423e+00    1.532043e+02
  3.924539e+00    1.530701e+02
  3.927655e+00    1.529577e+02
  3.930771e+00    1.531548e+02
  3.933887e+00    1.538919e+02
  3.937003e+00    1.548046e+02
  3.940119e+00    1.561986e+02
  3.943235e+00    1.588057e+02
  3.946351e+00    1.636494e+02
  3.949467e+00    1.702986e+02
  3.952583e+00    1.780437e+02
  3.955698e+00    1.853902e+02
  3.958814e+00    1.917597e+02
  3.961930e+00    1.979698e+02
  3.965046e+00    2.058198e+02
  3.968162e+00    2.190329e+02
  3.971278e+00    2.398929e+02
  3.974394e+00    2.668329e+02
  3.977510e+00    2.933825e+02
  3.980626e+00    3.092052e+02
  3.983742e+00    3.069709e+02
  3.986858e+00    2.857169e+02
  3.989974e+00    2.533298e+02
  3.993090e+00    2.208353e+02
  3.996206e+00    1.976509e+02
  3.999322e+00    1.889525e+02
  4.002438e+00    1.947338e+02
  4.005554e+00    2.128058e+02
  4.008670e+00    2.398010e+02
  4.011786e+00    2.677648e+02
  4.014902e+00    2.875652e+02
  4.018017e+00    2.915823e+02
  4.021133e+00    2.791031e+02
  4.024249e+00    2.573263e+02
  4.027365e+00    2.351425e+02
  4.030481e+00    2.202943e+02
  4.033597e+00    2.126177e+02
  4.036713e+00    2.095733e+02
  4.039829e+00    2.076214e+02
  4.042945e+00    2.046098e+02
  4.046061e+00    2.007673e+02
  4.049177e+00    1.989178e+02
  4.052293e+00    2.033926e+02
  4.055409e+00    2.161705e+02
  4.058525e+00    2.359452e+02
  4.061641e+00    2.531498e+02
  4.064757e+00    2.587765e+02
  4.067873e+00    2.486566e+02
  4.070989e+00    2.265645e+02
  4.074105e+00    2.024555e+02
  4.077221e+00    1.838640e+02
  4.080336e+00    1.738973e+02
  4.083452e+00    1.701369e+02
  4.086568e+00    1.683814e+02
  4.089684e+00    1.653790e+02
  4.092800e+00    1.600115e+02
  4.095916e+00    1.531784e+02
  4.099032e+00    1.471145e+02
  4.102148e+00    1.428490e+02
  4.105264e+00    1.404019e+02
  4.108380e+00    1.387080e+02
  4.111496e+00    1.378676e+02
  4.114612e+00    1.376552e+02
  4.117728e+00    1.376487e+02
  4.120844e+00    1.375284e+02
  4.123960e+00    1.373105e+02
  4.127076e+00    1.372017e+02
  4.130192e+00    1.374440e+02
  4.133308e+00    1.377217e+02
  4.136424e+00    1.382132e+02
  4.139540e+00    1.385878e+02
  4.142655e+00    1.391250e+02
  4.145771e+00    1.396902e+02
  4.148887e+00    1.405121e+02
  4.152003e+00    1.420512e+02
  4.155119e+00    1.442945e+02
  4.158235e+00    1.480764e+02
  4.161351e+00    1.549491e+02
  4.164467e+00    1.686127e+02
  4.167583e+00    1.975808e+02
  4.170699e+00    2.588395e+02
  4.173815e+00    3.811909e+02
  4.176931e+00    5.835384e+02
  4.180047e+00    8.678357e+02
  4.183163e+00    1.161490e+03
  4.186279e+00    1.370394e+03
  4.189395e+00    1.395207e+03
  4.192511e+00    1.226579e+03
  4.195627e+00    9.371356e+02
  4.198743e+00    6.364761e+02
  4.201858e+00    4.132734e+02
  4.204974e+00    2.761912e+02
  4.208090e+00    2.064212e+02
  4.211206e+00    1.715223e+02
  4.214322e+00    1.547177e+02
  4.217438e+00    1.461727e+02
  4.220554e+00    1.412840e+02
  4.223670e+00    1.383213e+02
  4.226786e+00    1.363531e+02
  4.229902e+00    1.351415e+02
  4.233018e+00    1.343187e+02
  4.236134e+00    1.335588e+02
  4.239250e+00    1.327403e+02
  4.242366e+00    1.318111e+02
  4.245482e+00    1.308482e+02
  4.248598e+00    1.297064e+02
  4.251714e+00    1.289411e+02
  4.254830e+00    1.284871e+02
  4.257946e+00    1.280810e+02
  4.261062e+00    1.277782e+02
  4.264177e+00    1.275594e+02
  4.267293e+00    1.273364e+02
  4.270409e+00    1.271950e+02
  4.273525e+00    1.269186e+02
  4.276641e+00    1.261604e+02
  4.279757e+00    1.259613e+02
  4.282873e+00    1.264976e+02
  4.285989e+00    1.264779e+02
  4.289105e+00    1.265115e+02
  4.292221e+00    1.266896e+02
  4.295337e+00    1.273684e+02
  4.298453e+00    1.288720e+02
  4.301569e+00    1.314001e+02
  4.304685e+00    1.345347e+02
  4.307801e+00    1.368570e+02
  4.310917e+00    1.373663e+02
  4.314033e+00    1.356509e+02
  4.317149e+00    1.323588e+02
  4.320265e+00    1.284292e+02
  4.323381e+00    1.247745e+02
  4.326496e+00    1.222928e+02
  4.329612e+00    1.213236e+02
  4.332728e+00    1.207952e+02
  4.335844e+00    1.203110e+02
  4.338960e+00    1.199627e+02
  4.342076e+00    1.195840e+02
  4.345192e+00    1.194207e+02
  4.348308e+00    1.190657e+02
  4.351424e+00    1.186817e+02
  4.354540e+00    1.185599e+02
  4.357656e+00    1.185991e+02
  4.360772e+00    1.182995e+02
  4.363888e+00    1.177895e+02
  4.367004e+00    1.175939e+02
  4.370120e+00    1.176778e+02
  4.373236e+00    1.175732e+02
  4.376352e+00    1.174501e+02
  4.379468e+00    1.173571e+02
  4.382584e+00    1.173271e+02
  4.385700e+00    1.172691e+02
  4.388815e+00    1.171284e+02
  4.391931e+00    1.168913e+02
  4.395047e+00    1.169384e+02
  4.398163e+00    1.170271e+02
  4.401279e+00    1.171974e+02
  4.404395e+00    1.172266e+02
  4.407511e+00    1.170480e+02
  4.410627e+00    1.172656e+02
  4.413743e+00    1.173597e+02
  4.416859e+00    1.179195e+02
  4.419975e+00    1.187252e+02
  4.423091e+00    1.192565e+02
  4.426207e+00    1.195409e+02
  4.429323e+00    1.197526e+02
  4.432439e+00    1.198602e+02
  4.435555e+00    1.197016e+02
  4.438671e+00    1.191444e+02
  4.441787e+00    1.188658e+02
  4.444903e+00    1.187468e+02
  4.448019e+00    1.187931e+02
  4.451134e+00    1.185685e+02
  4.454250e+00    1.182344e+02
  4.457366e+00    1.181535e+02
  4.460482e+00    1.179614e+02
  4.463598e+00    1.178661e+02
  4.466714e+00    1.178087e+02
  4.469830e+00    1.179207e+02
  4.472946e+00    1.183807e+02
  4.476062e+00    1.196381e+02
  4.479178e+00    1.215124e+02
  4.482294e+00    1.238562e+02
  4.485410e+00    1.272200e+02
  4.488526e+00    1.309169e+02
  4.491642e+00    1.339478e+02
  4.494758e+00    1.355983e+02
  4.497874e+00    1.357630e+02
  4.500990e+00    1.343343e+02
  4.504106e+00    1.316391e+02
  4.507222e+00    1.282596e+02
  4.510338e+00    1.249586e+02
  4.513453e+00    1.221844e+02
  4.516569e+00    1.201780e+02
  4.519685e+00    1.186443e+02
  4.522801e+00    1.170827e+02
  4.525917e+00    1.162206e+02
  4.529033e+00    1.162078e+02
  4.532149e+00    1.162348e+02
  4.535265e+00    1.163102e+02
  4.538381e+00    1.161688e+02
  4.541497e+00    1.166903e+02
  4.544613e+00    1.174341e+02
  4.547729e+00    1.183826e+02
  4.550845e+00    1.196541e+02
  4.553961e+00    1.207602e+02
  4.557077e+00    1.211507e+02
  4.560193e+00    1.208855e+02
  4.563309e+00    1.203479e+02
  4.566425e+00    1.207195e+02
  4.569541e+00    1.220846e+02
  4.572657e+00    1.253840e+02
  4.575772e+00    1.312795e+02
  4.578888e+00    1.406862e+02
  4.582004e+00    1.524288e+02
  4.585120e+00    1.636136e+02
  4.588236e+00    1.695292e+02
  4.591352e+00    1.678518e+02
  4.594468e+00    1.603415e+02
  4.597584e+00    1.498960e+02
  4.600700e+00    1.401479e+02
  4.603816e+00    1.327900e+02
  4.606932e+00    1.282547e+02
  4.610048e+00    1.252871e+02
  4.613164e+00    1.236236e+02
  4.616280e+00    1.226963e+02
  4.619396e+00    1.221997e+02
  4.622512e+00    1.221952e+02
  4.625628e+00    1.227044e+02
  4.628744e+00    1.236682e+02
  4.631860e+00    1.244710e+02
  4.634976e+00    1.250477e+02
  4.638091e+00    1.257021e+02
  4.641207e+00    1.266827e+02
  4.644323e+00    1.279335e+02
  4.647439e+00    1.297412e+02
  4.650555e+00    1.324496e+02
  4.653671e+00    1.367477e+02
  4.656787e+00    1.444410e+02
  4.659903e+00    1.613784e+02
  4.663019e+00    1.987941e+02
  4.666135e+00    2.616800e+02
  4.669251e+00    3.538389e+02
  4.672367e+00    4.647788e+02
  4.675483e+00    5.888172e+02
  4.678599e+00    6.828263e+02
  4.681715e+00    7.115107e+02
  4.684831e+00    6.686654e+02
  4.687947e+00    5.703245e+02
  4.691063e+00    4.706161e+02
  4.694179e+00    3.534606e+02
  4.697295e+00    2.682538e+02
  4.700410e+00    2.084624e+02
  4.703526e+00    1.804879e+02
  4.706642e+00    1.650566e+02
  4.709758e+00    1.584431e+02
  4.712874e+00    1.546191e+02
  4.715990e+00    1.523055e+02
  4.719106e+00    1.508317e+02
  4.722222e+00    1.504187e+02
  4.725338e+00    1.515797e+02
  4.728454e+00    1.538985e+02
  4.731570e+00    1.574405e+02
  4.734686e+00    1.607906e+02
  4.737802e+00    1.631196e+02
  4.740918e+00    1.631071e+02
  4.744034e+00    1.607883e+02
  4.747150e+00    1.564509e+02
  4.750266e+00    1.511531e+02
  4.753382e+00    1.465597e+02
  4.756498e+00    1.446089e+02
  4.759614e+00    1.474244e+02
  4.762729e+00    1.574834e+02
  4.765845e+00    1.758957e+02
  4.768961e+00    2.010172e+02
  4.772077e+00    2.251899e+02
  4.775193e+00    2.396440e+02
  4.778309e+00    2.377975e+02
  4.781425e+00    2.201397e+02
  4.784541e+00    1.950866e+02
  4.787657e+00    1.704703e+02
  4.790773e+00    1.521928e+02
  4.793889e+00    1.405991e+02
  4.797005e+00    1.341002e+02
  4.800121e+00    1.303973e+02
  4.803237e+00    1.280688e+02
  4.806353e+00    1.261847e+02
  4.809469e+00    1.244512e+02
  4.812585e+00    1.228163e+02
  4.815701e+00    1.216797e+02
  4.818817e+00    1.208740e+02
  4.821933e+00    1.204518e+02
  4.825048e+00    1.201781e+02
  4.828164e+00    1.203985e+02
  4.831280e+00    1.207189e+02
  4.834396e+00    1.211734e+02
  4.837512e+00    1.214721e+02
  4.840628e+00    1.215717e+02
  4.843744e+00    1.216162e+02
  4.846860e+00    1.218805e+02
  4.849976e+00    1.219922e+02
  4.853092e+00    1.218618e+02
  4.856208e+00    1.216877e+02
  4.859324e+00    1.213935e+02
  4.862440e+00    1.212546e+02
  4.865556e+00    1.213885e+02
  4.868672e+00    1.221300e+02
  4.871788e+00    1.234392e+02
  4.874904e+00    1.254799e+02
  4.878020e+00    1.278404e+02
  4.881136e+00    1.301763e+02
  4.884252e+00    1.319192e+02
  4.887367e+00    1.323114e+02
  4.890483e+00    1.313948e+02
  4.893599e+00    1.297163e+02
  4.896715e+00    1.281911e+02
  4.899831e+00    1.276129e+02
  4.902947e+00    1.284305e+02
  4.906063e+00    1.318962e+02
  4.909179e+00    1.411227e+02
  4.912295e+00    1.609026e+02
  4.915411e+00    2.030634e+02
  4.918527e+00    2.788927e+02
  4.921643e+00    3.848206e+02
  4.924759e+00    4.953737e+02
  4.927875e+00    5.776111e+02
  4.930991e+00    6.095288e+02
  4.934107e+00    5.822688e+02
  4.937223e+00    5.183716e+02
  4.940339e+00    4.364610e+02
  4.943455e+00    3.436662e+02
  4.946571e+00    2.646540e+02
  4.949686e+00    2.062396e+02
  4.952802e+00    1.666912e+02
  4.955918e+00    1.456982e+02
  4.959034e+00    1.349098e+02
  4.962150e+00    1.296408e+02
  4.965266e+00    1.271296e+02
  4.968382e+00    1.260410e+02
  4.971498e+00    1.256551e+02
  4.974614e+00    1.257195e+02
  4.977730e+00    1.258273e+02
  4.980846e+00    1.254069e+02
  4.983962e+00    1.247876e+02
  4.987078e+00    1.241226e+02
  4.990194e+00    1.234225e+02
  4.993310e+00    1.226177e+02
  4.996426e+00    1.217330e+02
  4.999542e+00    1.210797e+02
  5.002658e+00    1.203387e+02
  5.005774e+00    1.196452e+02
  5.008890e+00    1.189486e+02
  5.012005e+00    1.184984e+02
  5.015121e+00    1.182357e+02
  5.018237e+00    1.179568e+02
  5.021353e+00    1.176669e+02
  5.024469e+00    1.176086e+02
  5.027585e+00    1.176396e+02
  5.030701e+00    1.177064e+02
  5.033817e+00    1.176971e+02
  5.036933e+00    1.175932e+02
  5.040049e+00    1.174097e+02
  5.043165e+00    1.172522e+02
  5.046281e+00    1.171052e+02
  5.049397e+00    1.170375e+02
  5.052513e+00    1.170056e+02
  5.055629e+00    1.171106e+02
  5.058745e+00    1.170354e+02
  5.061861e+00    1.170284e+02
  5.064977e+00    1.170361e+02
  5.068093e+00    1.170328e+02
  5.071209e+00    1.169509e+02
  5.074324e+00    1.170096e+02
  5.077440e+00    1.172880e+02
  5.080556e+00    1.173573e+02
  5.083672e+00    1.174096e+02
  5.086788e+00    1.174402e+02
  5.089904e+00    1.178415e+02
  5.093020e+00    1.184737e+02
  5.096136e+00    1.194856e+02
  5.099252e+00    1.204009e+02
  5.102368e+00    1.206385e+02
  5.105484e+00    1.207590e+02
  5.108600e+00    1.209001e+02
  5.111716e+00    1.216218e+02
  5.114832e+00    1.231936e+02
  5.117948e+00    1.265613e+02
  5.121064e+00    1.325540e+02
  5.124180e+00    1.414999e+02
  5.127296e+00    1.507116e+02
  5.130412e+00    1.574984e+02
  5.133528e+00    1.588404e+02
  5.136643e+00    1.541268e+02
  5.139759e+00    1.455278e+02
  5.142875e+00    1.356541e+02
  5.145991e+00    1.278502e+02
  5.149107e+00    1.230494e+02
  5.152223e+00    1.205609e+02
  5.155339e+00    1.194282e+02
  5.158455e+00    1.189367e+02
  5.161571e+00    1.189207e+02
  5.164687e+00    1.193528e+02
  5.167803e+00    1.196892e+02
  5.170919e+00    1.197299e+02
  5.174035e+00    1.197433e+02
  5.177151e+00    1.198940e+02
  5.180267e+00    1.200889e+02
  5.183383e+00    1.204266e+02
  5.186499e+00    1.210049e+02
  5.189615e+00    1.217998e+02
  5.192731e+00    1.228886e+02
  5.195847e+00    1.239952e+02
  5.198962e+00    1.251086e+02
  5.202078e+00    1.259804e+02
  5.205194e+00    1.264032e+02
  5.208310e+00    1.265583e+02
  5.211426e+00    1.262225e+02
  5.214542e+00    1.256175e+02
  5.217658e+00    1.246739e+02
  5.220774e+00    1.238050e+02
  5.223890e+00    1.230881e+02
  5.227006e+00    1.225855e+02
  5.230122e+00    1.220785e+02
  5.233238e+00    1.217673e+02
  5.236354e+00    1.215281e+02
  5.239470e+00    1.213766e+02
  5.242586e+00    1.215380e+02
  5.245702e+00    1.215699e+02
  5.248818e+00    1.215862e+02
  5.251934e+00    1.214924e+02
  5.255050e+00    1.216398e+02
  5.258166e+00    1.219218e+02
  5.261281e+00    1.219778e+02
  5.264397e+00    1.221101e+02
  5.267513e+00    1.224450e+02
  5.270629e+00    1.228343e+02
  5.273745e+00    1.230147e+02
  5.276861e+00    1.228555e+02
  5.279977e+00    1.229673e+02
  5.283093e+00    1.234253e+02
  5.286209e+00    1.236420e+02
  5.289325e+00    1.235723e+02
  5.292441e+00    1.236723e+02
  5.295557e+00    1.238571e+02
  5.298673e+00    1.240215e+02
  5.301789e+00    1.244072e+02
  5.304905e+00    1.246416e+02
  5.308021e+00    1.248266e+02
  5.311137e+00    1.249195e+02
  5.314253e+00    1.251509e+02
  5.317369e+00    1.254318e+02
  5.320485e+00    1.256316e+02
  5.323600e+00    1.259156e+02
  5.326716e+00    1.261649e+02
  5.329832e+00    1.265112e+02
  5.332948e+00    1.268131e+02
  5.336064e+00    1.270887e+02
  5.339180e+00    1.272950e+02
  5.342296e+00    1.277095e+02
  5.345412e+00    1.283057e+02
  5.348528e+00    1.289863e+02
  5.351644e+00    1.293777e+02
  5.354760e+00    1.297929e+02
  5.357876e+00    1.302622e+02
  5.360992e+00    1.309110e+02
  5.364108e+00    1.316579e+02
  5.367224e+00    1.323737e+02
  5.370340e+00    1.332357e+02
  5.373456e+00    1.342561e+02
  5.376572e+00    1.347862e+02
  5.379688e+00    1.348846e+02
  5.382804e+00    1.347788e+02
  5.385919e+00    1.350336e+02
  5.389035e+00    1.353863e+02
  5.392151e+00    1.357178e+02
  5.395267e+00    1.360575e+02
  5.398383e+00    1.368304e+02
  5.401499e+00    1.382218e+02
  5.404615e+00    1.400267e+02
  5.407731e+00    1.423144e+02
  5.410847e+00    1.446436e+02
  5.413963e+00    1.471313e+02
  5.417079e+00    1.494046e+02
  5.420195e+00    1.510632e+02
  5.423311e+00    1.519922e+02
  5.426427e+00    1.524881e+02
  5.429543e+00    1.529123e+02
  5.432659e+00    1.534184e+02
  5.435775e+00    1.544711e+02
  5.438891e+00    1.563647e+02
  5.442007e+00    1.593671e+02
  5.445123e+00    1.643949e+02
  5.448238e+00    1.720667e+02
  5.451354e+00    1.835344e+02
  5.454470e+00    1.988616e+02
  5.457586e+00    2.176731e+02
  5.460702e+00    2.425316e+02
  5.463818e+00    2.796469e+02
  5.466934e+00    3.642573e+02
  5.470050e+00    4.975746e+02
  5.473166e+00    6.715050e+02
  5.476282e+00    8.013132e+02
  5.479398e+00    8.463846e+02
  5.482514e+00    8.329856e+02
  5.485630e+00    7.614293e+02
  5.488746e+00    6.997777e+02
  5.491862e+00    6.027620e+02
  5.494978e+00    5.080545e+02
  5.498094e+00    3.993854e+02
  5.501210e+00    3.117461e+02
  5.504326e+00    2.418156e+02
  5.507442e+00    2.040937e+02
  5.510557e+00    1.849680e+02
  5.513673e+00    1.767753e+02
  5.516789e+00    1.725882e+02
  5.519905e+00    1.708547e+02
  5.523021e+00    1.701487e+02
  5.526137e+00    1.695387e+02
  5.529253e+00    1.692429e+02
  5.532369e+00    1.688322e+02
  5.535485e+00    1.683135e+02
  5.538601e+00    1.678047e+02
  5.541717e+00    1.671249e+02
  5.544833e+00    1.663758e+02
  5.547949e+00    1.656612e+02
  5.551065e+00    1.654852e+02
  5.554181e+00    1.657429e+02
  5.557297e+00    1.664003e+02
  5.560413e+00    1.679145e+02
  5.563529e+00    1.701097e+02
  5.566645e+00    1.730625e+02
  5.569761e+00    1.764955e+02
  5.572876e+00    1.804974e+02
  5.575992e+00    1.842656e+02
  5.579108e+00    1.868361e+02
  5.582224e+00    1.877546e+02
  5.585340e+00    1.872033e+02
  5.588456e+00    1.859806e+02
  5.591572e+00    1.850539e+02
  5.594688e+00    1.860839e+02
  5.597804e+00    1.929821e+02
  5.600920e+00    2.123064e+02
  5.604036e+00    2.560339e+02
  5.607152e+00    3.362481e+02
  5.610268e+00    4.646313e+02
  5.613384e+00    6.304681e+02
  5.616500e+00    8.044717e+02
  5.619616e+00    9.314959e+02
  5.622732e+00    9.652134e+02
  5.625848e+00    8.895116e+02
  5.628964e+00    7.324022e+02
  5.632080e+00    5.501815e+02
  5.635195e+00    3.936613e+02
  5.638311e+00    2.882809e+02
  5.641427e+00    2.327850e+02
  5.644543e+00    2.101623e+02
  5.647659e+00    2.079834e+02
  5.650775e+00    2.156989e+02
  5.653891e+00    2.266070e+02
  5.657007e+00    2.342307e+02
  5.660123e+00    2.337441e+02
  5.663239e+00    2.251831e+02
  5.666355e+00    2.109988e+02
  5.669471e+00    1.958245e+02
  5.672587e+00    1.848557e+02
  5.675703e+00    1.805999e+02
  5.678819e+00    1.835042e+02
  5.681935e+00    1.909131e+02
  5.685051e+00    1.991255e+02
  5.688167e+00    2.047704e+02
  5.691283e+00    2.050533e+02
  5.694399e+00    1.999016e+02
  5.697514e+00    1.913130e+02
  5.700630e+00    1.820836e+02
  5.703746e+00    1.747269e+02
  5.706862e+00    1.696256e+02
  5.709978e+00    1.668294e+02
  5.713094e+00    1.654614e+02
  5.716210e+00    1.646405e+02
  5.719326e+00    1.637303e+02
  5.722442e+00    1.625854e+02
  5.725558e+00    1.611682e+02
  5.728674e+00    1.597552e+02
  5.731790e+00    1.592585e+02
  5.734906e+00    1.606648e+02
  5.738022e+00    1.640194e+02
  5.741138e+00    1.688712e+02
  5.744254e+00    1.747545e+02
  5.747370e+00    1.795567e+02
  5.750486e+00    1.811382e+02
  5.753602e+00    1.791071e+02
  5.756718e+00    1.743851e+02
  5.759833e+00    1.686177e+02
  5.762949e+00    1.633830e+02
  5.766065e+00    1.599127e+02
  5.769181e+00    1.586717e+02
  5.772297e+00    1.589638e+02
  5.775413e+00    1.602906e+02
  5.778529e+00    1.615228e+02
  5.781645e+00    1.624474e+02
  5.784761e+00    1.621650e+02
  5.787877e+00    1.606622e+02
  5.790993e+00    1.582147e+02
  5.794109e+00    1.555176e+02
  5.797225e+00    1.534493e+02
  5.800341e+00    1.519534e+02
  5.803457e+00    1.510020e+02
  5.806573e+00    1.507394e+02
  5.809689e+00    1.507401e+02
  5.812805e+00    1.506266e+02
  5.815921e+00    1.503884e+02
  5.819037e+00    1.503463e+02
  5.822152e+00    1.505535e+02
  5.825268e+00    1.504268e+02
  5.828384e+00    1.504698e+02
  5.831500e+00    1.506482e+02
  5.834616e+00    1.508553e+02
  5.837732e+00    1.512431e+02
  5.840848e+00    1.515691e+02
  5.843964e+00    1.518108e+02
  5.847080e+00    1.520994e+02
  5.850196e+00    1.525751e+02
  5.853312e+00    1.530871e+02
  5.856428e+00    1.536373e+02
  5.859544e+00    1.542913e+02
  5.862660e+00    1.548310e+02
  5.865776e+00    1.555915e+02
  5.868892e+00    1.559776e+02
  5.872008e+00    1.564424e+02
  5.875124e+00    1.568086e+02
  5.878240e+00    1.570666e+02
  5.881356e+00    1.572804e+02
  5.884471e+00    1.578634e+02
  5.887587e+00    1.585581e+02
  5.890703e+00    1.595735e+02
  5.893819e+00    1.613588e+02
  5.896935e+00    1.642128e+02
  5.900051e+00    1.693178e+02
  5.903167e+00    1.787793e+02
  5.906283e+00    1.961952e+02
  5.909399e+00    2.270206e+02
  5.912515e+00    2.743401e+02
  5.915631e+00    3.373672e+02
  5.918747e+00    4.037336e+02
  5.921863e+00    4.597228e+02
  5.924979e+00    4.833035e+02
  5.928095e+00    4.678043e+02
  5.931211e+00    4.174205e+02
  5.934327e+00    3.478689e+02
  5.937443e+00    2.841099e+02
  5.940559e+00    2.346476e+02
  5.943675e+00    2.048602e+02
  5.946790e+00    1.884573e+02
  5.949906e+00    1.798669e+02
  5.953022e+00    1.749937e+02
  5.956138e+00    1.722984e+02
  5.959254e+00    1.705715e+02
  5.962370e+00    1.698156e+02
  5.965486e+00    1.695960e+02
  5.968602e+00    1.696051e+02
  5.971718e+00    1.698287e+02
  5.974834e+00    1.700245e+02
  5.977950e+00    1.705911e+02
  5.981066e+00    1.712718e+02
  5.984182e+00    1.722009e+02
  5.987298e+00    1.736275e+02
  5.990414e+00    1.753681e+02
  5.993530e+00    1.769961e+02
  5.996646e+00    1.784308e+02
  5.999762e+00    1.794523e+02
  6.002878e+00    1.803581e+02
  6.005994e+00    1.815802e+02
  6.009109e+00    1.838912e+02
  6.012225e+00    1.878825e+02
  6.015341e+00    1.951762e+02
  6.018457e+00    2.096829e+02
  6.021573e+00    2.403171e+02
  6.024689e+00    3.006310e+02
  6.027805e+00    4.046791e+02
  6.030921e+00    5.384604e+02
  6.034037e+00    6.773428e+02
  6.037153e+00    7.647021e+02
  6.040269e+00    7.815044e+02
  6.043385e+00    7.428298e+02
  6.046501e+00    7.019651e+02
  6.049617e+00    6.951820e+02
  6.052733e+00    7.490955e+02
  6.055849e+00    8.029133e+02
  6.058965e+00    8.360283e+02
  6.062081e+00    8.609920e+02
  6.065197e+00    8.396481e+02
  6.068313e+00    7.938356e+02
  6.071428e+00    6.903602e+02
  6.074544e+00    5.871982e+02
  6.077660e+00    4.779498e+02
  6.080776e+00    3.769711e+02
  6.083892e+00    3.055442e+02
  6.087008e+00    2.582906e+02
  6.090124e+00    2.282388e+02
  6.093240e+00    2.165970e+02
  6.096356e+00    2.096739e+02
  6.099472e+00    2.052841e+02
  6.102588e+00    2.019790e+02
  6.105704e+00    1.998597e+02
  6.108820e+00    1.985188e+02
  6.111936e+00    1.978243e+02
  6.115052e+00    1.978764e+02
  6.118168e+00    1.989483e+02
  6.121284e+00    2.008205e+02
  6.124400e+00    2.028114e+02
  6.127516e+00    2.045930e+02
  6.130632e+00    2.054211e+02
  6.133747e+00    2.043575e+02
  6.136863e+00    2.014413e+02
  6.139979e+00    1.971888e+02
  6.143095e+00    1.920847e+02
  6.146211e+00    1.869518e+02
  6.149327e+00    1.818897e+02
  6.152443e+00    1.774694e+02
  6.155559e+00    1.740154e+02
  6.158675e+00    1.713801e+02
  6.161791e+00    1.694641e+02
  6.164907e+00    1.682777e+02
  6.168023e+00    1.674856e+02
  6.171139e+00    1.667519e+02
  6.174255e+00    1.663075e+02
  6.177371e+00    1.659783e+02
  6.180487e+00    1.655255e+02
  6.183603e+00    1.650256e+02
  6.186719e+00    1.644782e+02
  6.189835e+00    1.641760e+02
  6.192951e+00    1.642356e+02
  6.196066e+00    1.646045e+02
  6.199182e+00    1.656544e+02
  6.202298e+00    1.676288e+02
  6.205414e+00    1.701463e+02
  6.208530e+00    1.727412e+02
  6.211646e+00    1.748807e+02
  6.214762e+00    1.757503e+02
  6.217878e+00    1.749392e+02
  6.220994e+00    1.727625e+02
  6.224110e+00    1.697417e+02
  6.227226e+00    1.670419e+02
  6.230342e+00    1.647411e+02
  6.233458e+00    1.630846e+02
  6.236574e+00    1.621706e+02
  6.239690e+00    1.618982e+02
  6.242806e+00    1.618763e+02
  6.245922e+00    1.621906e+02
  6.249038e+00    1.623329e+02
  6.252154e+00    1.625551e+02
  6.255270e+00    1.629646e+02
  6.258385e+00    1.637080e+02
  6.261501e+00    1.643886e+02
  6.264617e+00    1.647869e+02
  6.267733e+00    1.647811e+02
  6.270849e+00    1.644964e+02
  6.273965e+00    1.641769e+02
  6.277081e+00    1.639440e+02
  6.280197e+00    1.637519e+02
  6.283313e+00    1.638139e+02
  6.286429e+00    1.640610e+02
  6.289545e+00    1.643514e+02
  6.292661e+00    1.648345e+02
  6.295777e+00    1.654594e+02
  6.298893e+00    1.666745e+02
  6.302009e+00    1.679097e+02
  6.305125e+00    1.693103e+02
  6.308241e+00    1.711165e+02
  6.311357e+00    1.745468e+02
  6.314473e+00    1.822233e+02
  6.317589e+00    1.930918e+02
  6.320704e+00    2.102556e+02
  6.323820e+00    2.276973e+02
  6.326936e+00    2.403623e+02
  6.330052e+00    2.466987e+02
  6.333168e+00    2.514085e+02
  6.336284e+00    2.604571e+02
  6.339400e+00    2.854499e+02
  6.342516e+00    3.395571e+02
  6.345632e+00    4.105693e+02
  6.348748e+00    4.959026e+02
  6.351864e+00    5.725672e+02
  6.354980e+00    6.205002e+02
  6.358096e+00    6.282662e+02
  6.361212e+00    5.852888e+02
  6.364328e+00    5.017878e+02
  6.367444e+00    4.018535e+02
  6.370560e+00    3.110838e+02
  6.373676e+00    2.465629e+02
  6.376792e+00    2.080280e+02
  6.379908e+00    1.885490e+02
  6.383023e+00    1.790145e+02
  6.386139e+00    1.744451e+02
  6.389255e+00    1.720959e+02
  6.392371e+00    1.706003e+02
  6.395487e+00    1.697564e+02
  6.398603e+00    1.691505e+02
  6.401719e+00    1.684888e+02
  6.404835e+00    1.676830e+02
  6.407951e+00    1.673299e+02
  6.411067e+00    1.681850e+02
  6.414183e+00    1.690698e+02
  6.417299e+00    1.697071e+02
  6.420415e+00    1.703961e+02
  6.423531e+00    1.711132e+02
  6.426647e+00    1.719934e+02
  6.429763e+00    1.732039e+02
  6.432879e+00    1.747043e+02
  6.435995e+00    1.762423e+02
  6.439111e+00    1.778659e+02
  6.442227e+00    1.798973e+02
  6.445342e+00    1.823422e+02
  6.448458e+00    1.856910e+02
  6.451574e+00    1.912478e+02
  6.454690e+00    2.011138e+02
  6.457806e+00    2.206539e+02
  6.460922e+00    2.617001e+02
  6.464038e+00    3.352983e+02
  6.467154e+00    4.529120e+02
  6.470270e+00    6.100476e+02
  6.473386e+00    7.097556e+02
  6.476502e+00    7.404764e+02
  6.479618e+00    6.925705e+02
  6.482734e+00    6.487112e+02
  6.485850e+00    6.212401e+02
  6.488966e+00    5.837177e+02
  6.492082e+00    5.237938e+02
  6.495198e+00    4.400943e+02
  6.498314e+00    3.522931e+02
  6.501430e+00    2.803513e+02
  6.504546e+00    2.355210e+02
  6.507661e+00    2.117728e+02
  6.510777e+00    2.021298e+02
  6.513893e+00    1.984709e+02
  6.517009e+00    1.974788e+02
  6.520125e+00    1.973319e+02
  6.523241e+00    1.974438e+02
  6.526357e+00    1.976149e+02
  6.529473e+00    1.984073e+02
  6.532589e+00    1.997229e+02
  6.535705e+00    2.022249e+02
  6.538821e+00    2.078343e+02
  6.541937e+00    2.212728e+02
  6.545053e+00    2.491192e+02
  6.548169e+00    3.061327e+02
  6.551285e+00    4.253459e+02
  6.554401e+00    5.400674e+02
  6.557517e+00    6.500378e+02
  6.560633e+00    6.813544e+02
  6.563749e+00    6.656525e+02
  6.566865e+00    5.986818e+02
  6.569980e+00    5.447140e+02
  6.573096e+00    5.263301e+02
  6.576212e+00    5.001651e+02
  6.579328e+00    4.531652e+02
  6.582444e+00    3.774586e+02
  6.585560e+00    3.089956e+02
  6.588676e+00    2.595855e+02
  6.591792e+00    2.341944e+02
  6.594908e+00    2.207665e+02
  6.598024e+00    2.125872e+02
  6.601140e+00    2.066746e+02
  6.604256e+00    2.009542e+02
  6.607372e+00    1.970523e+02
  6.610488e+00    1.973152e+02
  6.613604e+00    2.009418e+02
  6.616720e+00    2.072265e+02
  6.619836e+00    2.153541e+02
  6.622952e+00    2.232565e+02
  6.626068e+00    2.280556e+02
  6.629184e+00    2.280148e+02
  6.632299e+00    2.228524e+02
  6.635415e+00    2.132997e+02
  6.638531e+00    2.025845e+02
  6.641647e+00    1.924142e+02
  6.644763e+00    1.847324e+02
  6.647879e+00    1.794449e+02
  6.650995e+00    1.763201e+02
  6.654111e+00    1.745810e+02
  6.657227e+00    1.741440e+02
  6.660343e+00    1.748859e+02
  6.663459e+00    1.769272e+02
  6.666575e+00    1.809220e+02
  6.669691e+00    1.844090e+02
  6.672807e+00    1.873754e+02
  6.675923e+00    1.894768e+02
  6.679039e+00    1.908772e+02
  6.682155e+00    1.910387e+02
  6.685271e+00    1.906002e+02
  6.688387e+00    1.893691e+02
  6.691503e+00    1.875067e+02
  6.694618e+00    1.847759e+02
  6.697734e+00    1.814126e+02
  6.700850e+00    1.772114e+02
  6.703966e+00    1.729573e+02
  6.707082e+00    1.693397e+02
  6.710198e+00    1.668423e+02
  6.713314e+00    1.664915e+02
  6.716430e+00    1.691864e+02
  6.719546e+00    1.750759e+02
  6.722662e+00    1.832120e+02
  6.725778e+00    1.916595e+02
  6.728894e+00    1.980161e+02
  6.732010e+00    2.007944e+02
  6.735126e+00    1.989462e+02
  6.738242e+00    1.931909e+02
  6.741358e+00    1.851044e+02
  6.744474e+00    1.768892e+02
  6.747590e+00    1.700199e+02
  6.750706e+00    1.649752e+02
  6.753822e+00    1.617395e+02
  6.756937e+00    1.595052e+02
  6.760053e+00    1.580576e+02
  6.763169e+00    1.569911e+02
  6.766285e+00    1.566356e+02
  6.769401e+00    1.567218e+02
  6.772517e+00    1.574388e+02
  6.775633e+00    1.584779e+02
  6.778749e+00    1.596678e+02
  6.781865e+00    1.604298e+02
  6.784981e+00    1.604126e+02
  6.788097e+00    1.595293e+02
  6.791213e+00    1.578402e+02
  6.794329e+00    1.557413e+02
  6.797445e+00    1.537746e+02
  6.800561e+00    1.520737e+02
  6.803677e+00    1.511681e+02
  6.806793e+00    1.505018e+02
  6.809909e+00    1.502567e+02
  6.813025e+00    1.502167e+02
  6.816141e+00    1.502063e+02
  6.819256e+00    1.501272e+02
  6.822372e+00    1.503721e+02
  6.825488e+00    1.506142e+02
  6.828604e+00    1.510759e+02
  6.831720e+00    1.513507e+02
  6.834836e+00    1.517324e+02
  6.837952e+00    1.522236e+02
  6.841068e+00    1.528130e+02
  6.844184e+00    1.533537e+02
  6.847300e+00    1.544806e+02
  6.850416e+00    1.564473e+02
  6.853532e+00    1.594949e+02
  6.856648e+00    1.641062e+02
  6.859764e+00    1.730160e+02
  6.862880e+00    1.895183e+02
  6.865996e+00    2.193872e+02
  6.869112e+00    2.693823e+02
  6.872228e+00    3.445808e+02
  6.875344e+00    4.447911e+02
  6.878460e+00    5.601103e+02
  6.881575e+00    6.701829e+02
  6.884691e+00    7.479718e+02
  6.887807e+00    7.729025e+02
  6.890923e+00    7.368704e+02
  6.894039e+00    6.469600e+02
  6.897155e+00    5.294890e+02
  6.900271e+00    4.172528e+02
  6.903387e+00    3.296935e+02
  6.906503e+00    2.724816e+02
  6.909619e+00    2.370120e+02
  6.912735e+00    2.160934e+02
  6.915851e+00    2.031700e+02
  6.918967e+00    1.943881e+02
  6.922083e+00    1.880193e+02
  6.925199e+00    1.837107e+02
  6.928315e+00    1.799837e+02
  6.931431e+00    1.760524e+02
  6.934547e+00    1.718353e+02
  6.937663e+00    1.688158e+02
  6.940779e+00    1.674253e+02
  6.943894e+00    1.675671e+02
  6.947010e+00    1.685907e+02
  6.950126e+00    1.704617e+02
  6.953242e+00    1.734294e+02
  6.956358e+00    1.779072e+02
  6.959474e+00    1.859348e+02
  6.962590e+00    1.986968e+02
  6.965706e+00    2.162914e+02
  6.968822e+00    2.355922e+02
  6.971938e+00    2.513213e+02
  6.975054e+00    2.587794e+02
  6.978170e+00    2.549247e+02
  6.981286e+00    2.448087e+02
  6.984402e+00    2.351079e+02
  6.987518e+00    2.316794e+02
  6.990634e+00    2.334274e+02
  6.993750e+00    2.395427e+02
  6.996866e+00    2.508352e+02
  6.999982e+00    2.726176e+02
  7.003097e+00    3.073337e+02
  7.006213e+00    3.512294e+02
  7.009329e+00    3.923888e+02
  7.012445e+00    4.178208e+02
  7.015561e+00    4.184070e+02
  7.018677e+00    3.914286e+02
  7.021793e+00    3.437514e+02
  7.024909e+00    2.871835e+02
  7.028025e+00    2.358282e+02
  7.031141e+00    1.982699e+02
  7.034257e+00    1.749111e+02
  7.037373e+00    1.618044e+02
  7.040489e+00    1.546227e+02
  7.043605e+00    1.505059e+02
  7.046721e+00    1.481020e+02
  7.049837e+00    1.463906e+02
  7.052953e+00    1.450295e+02
  7.056069e+00    1.437314e+02
  7.059185e+00    1.423465e+02
  7.062301e+00    1.411502e+02
  7.065416e+00    1.401846e+02
  7.068532e+00    1.397323e+02
  7.071648e+00    1.395727e+02
  7.074764e+00    1.396468e+02
  7.077880e+00    1.395494e+02
  7.080996e+00    1.394998e+02
  7.084112e+00    1.393590e+02
  7.087228e+00    1.393987e+02
  7.090344e+00    1.391038e+02
  7.093460e+00    1.385032e+02
  7.096576e+00    1.378848e+02
  7.099692e+00    1.371436e+02
  7.102808e+00    1.361292e+02
  7.105924e+00    1.352224e+02
  7.109040e+00    1.342039e+02
  7.112156e+00    1.335756e+02
  7.115272e+00    1.331439e+02
  7.118388e+00    1.327845e+02
  7.121504e+00    1.320428e+02
  7.124620e+00    1.315643e+02
  7.127735e+00    1.314627e+02
  7.130851e+00    1.314601e+02
  7.133967e+00    1.313887e+02
  7.137083e+00    1.309639e+02
  7.140199e+00    1.304828e+02
  7.143315e+00    1.300969e+02
  7.146431e+00    1.299456e+02
  7.149547e+00    1.297987e+02
  7.152663e+00    1.298118e+02
  7.155779e+00    1.297179e+02
  7.158895e+00    1.298576e+02
  7.162011e+00    1.297287e+02
  7.165127e+00    1.296273e+02
  7.168243e+00    1.292957e+02
  7.171359e+00    1.292836e+02
  7.174475e+00    1.293844e+02
  7.177591e+00    1.296007e+02
  7.180707e+00    1.298091e+02
  7.183823e+00    1.305133e+02
  7.186939e+00    1.320764e+02
  7.190054e+00    1.349099e+02
  7.193170e+00    1.406293e+02
  7.196286e+00    1.510644e+02
  7.199402e+00    1.685829e+02
  7.202518e+00    1.857113e+02
  7.205634e+00    2.007236e+02
  7.208750e+00    2.060580e+02
  7.211866e+00    2.047895e+02
  7.214982e+00    2.021355e+02
  7.218098e+00    1.989965e+02
  7.221214e+00    1.928681e+02
  7.224330e+00    1.826905e+02
  7.227446e+00    1.703123e+02
  7.230562e+00    1.581273e+02
  7.233678e+00    1.466564e+02
  7.236794e+00    1.380973e+02
  7.239910e+00    1.325128e+02
  7.243026e+00    1.291520e+02
  7.246142e+00    1.273189e+02
  7.249258e+00    1.262463e+02
  7.252373e+00    1.255998e+02
  7.255489e+00    1.251408e+02
  7.258605e+00    1.249349e+02
  7.261721e+00    1.247533e+02
  7.264837e+00    1.247021e+02
  7.267953e+00    1.245433e+02
  7.271069e+00    1.242093e+02
  7.274185e+00    1.236621e+02
  7.277301e+00    1.231812e+02
  7.280417e+00    1.227466e+02
  7.283533e+00    1.223925e+02
  7.286649e+00    1.221961e+02
  7.289765e+00    1.221466e+02
  7.292881e+00    1.221250e+02
  7.295997e+00    1.220789e+02
  7.299113e+00    1.223096e+02
  7.302229e+00    1.220337e+02
  7.305345e+00    1.216923e+02
  7.308461e+00    1.215297e+02
  7.311577e+00    1.216841e+02
  7.314692e+00    1.219115e+02
  7.317808e+00    1.219692e+02
  7.320924e+00    1.218182e+02
  7.324040e+00    1.216919e+02
  7.327156e+00    1.216401e+02
  7.330272e+00    1.215239e+02
  7.333388e+00    1.211869e+02
  7.336504e+00    1.209831e+02
  7.339620e+00    1.205502e+02
  7.342736e+00    1.201894e+02
  7.345852e+00    1.196388e+02
  7.348968e+00    1.190945e+02
  7.352084e+00    1.183974e+02
  7.355200e+00    1.177790e+02
  7.358316e+00    1.172538e+02
  7.361432e+00    1.166141e+02
  7.364548e+00    1.161670e+02
  7.367664e+00    1.159731e+02
  7.370780e+00    1.159684e+02
  7.373896e+00    1.158953e+02
  7.377011e+00    1.157429e+02
  7.380127e+00    1.156522e+02
  7.383243e+00    1.154404e+02
  7.386359e+00    1.156339e+02
  7.389475e+00    1.156424e+02
  7.392591e+00    1.156153e+02
  7.395707e+00    1.155147e+02
  7.398823e+00    1.153617e+02
  7.401939e+00    1.155098e+02
  7.405055e+00    1.153306e+02
  7.408171e+00    1.150032e+02
  7.411287e+00    1.145560e+02
  7.414403e+00    1.142750e+02
  7.417519e+00    1.140635e+02
  7.420635e+00    1.139936e+02
  7.423751e+00    1.139033e+02
  7.426867e+00    1.139289e+02
  7.429983e+00    1.137031e+02
  7.433099e+00    1.138540e+02
  7.436215e+00    1.138338e+02
  7.439330e+00    1.138273e+02
  7.442446e+00    1.135771e+02
  7.445562e+00    1.134841e+02
  7.448678e+00    1.132873e+02
  7.451794e+00    1.131021e+02
  7.454910e+00    1.126067e+02
  7.458026e+00    1.122346e+02
  7.461142e+00    1.122484e+02
  7.464258e+00    1.127418e+02
  7.467374e+00    1.132414e+02
  7.470490e+00    1.138048e+02
  7.473606e+00    1.146627e+02
  7.476722e+00    1.156909e+02
  7.479838e+00    1.171619e+02
  7.482954e+00    1.198881e+02
  7.486070e+00    1.244688e+02
  7.489186e+00    1.311602e+02
  7.492302e+00    1.390302e+02
  7.495418e+00    1.473341e+02
  7.498534e+00    1.538662e+02
  7.501649e+00    1.569436e+02
  7.504765e+00    1.559865e+02
  7.507881e+00    1.506486e+02
  7.510997e+00    1.424875e+02
  7.514113e+00    1.337329e+02
  7.517229e+00    1.259709e+02
  7.520345e+00    1.203123e+02
  7.523461e+00    1.167677e+02
  7.526577e+00    1.149387e+02
  7.529693e+00    1.137445e+02
  7.532809e+00    1.130307e+02
  7.535925e+00    1.125966e+02
  7.539041e+00    1.125168e+02
  7.542157e+00    1.123948e+02
  7.545273e+00    1.123314e+02
  7.548389e+00    1.121463e+02
  7.551505e+00    1.122296e+02
  7.554621e+00    1.122750e+02
  7.557737e+00    1.124422e+02
  7.560853e+00    1.125320e+02
  7.563968e+00    1.125470e+02
  7.567084e+00    1.130653e+02
  7.570200e+00    1.142768e+02
  7.573316e+00    1.170510e+02
  7.576432e+00    1.211677e+02
  7.579548e+00    1.262078e+02
  7.582664e+00    1.318349e+02
  7.585780e+00    1.386035e+02
  7.588896e+00    1.470482e+02
  7.592012e+00    1.549301e+02
  7.595128e+00    1.598525e+02
  7.598244e+00    1.590224e+02
  7.601360e+00    1.544383e+02
  7.604476e+00    1.484308e+02
  7.607592e+00    1.426447e+02
  7.610708e+00    1.384066e+02
  7.613824e+00    1.347656e+02
  7.616940e+00    1.320426e+02
  7.620056e+00    1.292503e+02
  7.623172e+00    1.261956e+02
  7.626287e+00    1.225492e+02
  7.629403e+00    1.191276e+02
  7.632519e+00    1.165961e+02
  7.635635e+00    1.147326e+02
  7.638751e+00    1.137671e+02
  7.641867e+00    1.130273e+02
  7.644983e+00    1.131066e+02
  7.648099e+00    1.131817e+02
  7.651215e+00    1.134717e+02
  7.654331e+00    1.139011e+02
  7.657447e+00    1.141991e+02
  7.660563e+00    1.144531e+02
  7.663679e+00    1.148829e+02
  7.666795e+00    1.154038e+02
  7.669911e+00    1.160014e+02
  7.673027e+00    1.160162e+02
  7.676143e+00    1.159794e+02
  7.679259e+00    1.156504e+02
  7.682375e+00    1.156073e+02
  7.685491e+00    1.154574e+02
  7.688606e+00    1.155072e+02
  7.691722e+00    1.154873e+02
  7.694838e+00    1.154885e+02
  7.697954e+00    1.154767e+02
  7.701070e+00    1.152183e+02
  7.704186e+00    1.146856e+02
  7.707302e+00    1.142195e+02
  7.710418e+00    1.135931e+02
  7.713534e+00    1.130264e+02
  7.716650e+00    1.121130e+02
  7.719766e+00    1.113628e+02
  7.722882e+00    1.106786e+02
  7.725998e+00    1.102782e+02
  7.729114e+00    1.099045e+02
  7.732230e+00    1.096689e+02
  7.735346e+00    1.094566e+02
  7.738462e+00    1.097808e+02
  7.741578e+00    1.097953e+02
  7.744694e+00    1.101334e+02
  7.747810e+00    1.104567e+02
  7.750925e+00    1.108809e+02
  7.754041e+00    1.111310e+02
  7.757157e+00    1.116280e+02
  7.760273e+00    1.122208e+02
  7.763389e+00    1.125386e+02
  7.766505e+00    1.128067e+02
  7.769621e+00    1.133810e+02
  7.772737e+00    1.144062e+02
  7.775853e+00    1.158957e+02
  7.778969e+00    1.186984e+02
  7.782085e+00    1.240161e+02
  7.785201e+00    1.330111e+02
  7.788317e+00    1.467424e+02
  7.791433e+00    1.638759e+02
  7.794549e+00    1.807305e+02
  7.797665e+00    1.919604e+02
  7.800781e+00    1.926917e+02
  7.803897e+00    1.854259e+02
  7.807013e+00    1.742467e+02
  7.810129e+00    1.644855e+02
  7.813244e+00    1.575446e+02
  7.816360e+00    1.524267e+02
  7.819476e+00    1.473590e+02
  7.822592e+00    1.411898e+02
  7.825708e+00    1.339379e+02
  7.828824e+00    1.266642e+02
  7.831940e+00    1.216068e+02
  7.835056e+00    1.189562e+02
  7.838172e+00    1.179102e+02
  7.841288e+00    1.174156e+02
  7.844404e+00    1.171145e+02
  7.847520e+00    1.164761e+02
  7.850636e+00    1.152789e+02
  7.853752e+00    1.139001e+02
  7.856868e+00    1.124460e+02
  7.859984e+00    1.112749e+02
  7.863100e+00    1.104815e+02
  7.866216e+00    1.098589e+02
  7.869332e+00    1.097779e+02
  7.872448e+00    1.094500e+02
  7.875563e+00    1.090806e+02
  7.878679e+00    1.089693e+02
  7.881795e+00    1.090429e+02
  7.884911e+00    1.093744e+02
  7.888027e+00    1.091357e+02
  7.891143e+00    1.092507e+02
  7.894259e+00    1.096053e+02
  7.897375e+00    1.096070e+02
  7.900491e+00    1.096585e+02
  7.903607e+00    1.092603e+02
  7.906723e+00    1.093235e+02
  7.909839e+00    1.093013e+02
  7.912955e+00    1.096551e+02
  7.916071e+00    1.099104e+02
  7.919187e+00    1.099765e+02
  7.922303e+00    1.101041e+02
  7.925419e+00    1.099120e+02
  7.928535e+00    1.097004e+02
  7.931651e+00    1.094784e+02
  7.934767e+00    1.095411e+02
  7.937882e+00    1.095392e+02
  7.940998e+00    1.096911e+02
  7.944114e+00    1.096700e+02
  7.947230e+00    1.097708e+02
  7.950346e+00    1.099000e+02
  7.953462e+00    1.104389e+02
  7.956578e+00    1.109610e+02
  7.959694e+00    1.115573e+02
  7.962810e+00    1.117838e+02
  7.965926e+00    1.119583e+02
  7.969042e+00    1.123425e+02
  7.972158e+00    1.127077e+02
  7.975274e+00    1.130261e+02
  7.978390e+00    1.127966e+02
  7.981506e+00    1.120582e+02
  7.984622e+00    1.110238e+02
  7.987738e+00    1.102425e+02
  7.990854e+00    1.100936e+02
  7.993970e+00    1.101964e+02
  7.997086e+00    1.103881e+02
  8.000201e+00    1.102475e+02
  8.003317e+00    1.100369e+02
  8.006433e+00    1.101644e+02
  8.009549e+00    1.104506e+02
  8.012665e+00    1.108526e+02
  8.015781e+00    1.113789e+02
  8.018897e+00    1.121603e+02
  8.022013e+00    1.126691e+02
  8.025129e+00    1.128568e+02
  8.028245e+00    1.130969e+02
  8.031361e+00    1.133931e+02
  8.034477e+00    1.139527e+02
  8.037593e+00    1.144999e+02
  8.040709e+00    1.149973e+02
  8.043825e+00    1.153624e+02
  8.046941e+00    1.162931e+02
  8.050057e+00    1.182002e+02
  8.053173e+00    1.207675e+02
  8.056289e+00    1.238600e+02
  8.059405e+00    1.266428e+02
  8.062520e+00    1.287495e+02
  8.065636e+00    1.301336e+02
  8.068752e+00    1.300665e+02
  8.071868e+00    1.284603e+02
  8.074984e+00    1.253973e+02
  8.078100e+00    1.215175e+02
  8.081216e+00    1.180669e+02
  8.084332e+00    1.153524e+02
  8.087448e+00    1.139049e+02
  8.090564e+00    1.130710e+02
  8.093680e+00    1.122508e+02
  8.096796e+00    1.118405e+02
  8.099912e+00    1.116129e+02
  8.103028e+00    1.116713e+02
  8.106144e+00    1.115440e+02
  8.109260e+00    1.115201e+02
  8.112376e+00    1.116721e+02
  8.115492e+00    1.120378e+02
  8.118608e+00    1.123049e+02
  8.121724e+00    1.128329e+02
  8.124839e+00    1.136866e+02
  8.127955e+00    1.147989e+02
  8.131071e+00    1.161278e+02
  8.134187e+00    1.168761e+02
  8.137303e+00    1.175076e+02
  8.140419e+00    1.176031e+02
  8.143535e+00    1.178208e+02
  8.146651e+00    1.176574e+02
  8.149767e+00    1.179286e+02
  8.152883e+00    1.186297e+02
  8.155999e+00    1.206726e+02
  8.159115e+00    1.245878e+02
  8.162231e+00    1.309196e+02
  8.165347e+00    1.402141e+02
  8.168463e+00    1.538464e+02
  8.171579e+00    1.733355e+02
  8.174695e+00    1.963177e+02
  8.177811e+00    2.100174e+02
  8.180927e+00    2.100730e+02
  8.184043e+00    1.999200e+02
  8.187158e+00    1.900616e+02
  8.190274e+00    1.848274e+02
  8.193390e+00    1.831390e+02
  8.196506e+00    1.794844e+02
  8.199622e+00    1.700257e+02
  8.202738e+00    1.526344e+02
  8.205854e+00    1.369698e+02
  8.208970e+00    1.262502e+02
  8.212086e+00    1.201907e+02
  8.215202e+00    1.175404e+02
  8.218318e+00    1.163687e+02
  8.221434e+00    1.159529e+02
  8.224550e+00    1.156404e+02
  8.227666e+00    1.151060e+02
  8.230782e+00    1.144571e+02
  8.233898e+00    1.145520e+02
  8.237014e+00    1.145738e+02
  8.240130e+00    1.145717e+02
  8.243246e+00    1.146634e+02
  8.246362e+00    1.145440e+02
  8.249477e+00    1.146993e+02
  8.252593e+00    1.145332e+02
  8.255709e+00    1.148966e+02
  8.258825e+00    1.149234e+02
  8.261941e+00    1.151002e+02
  8.265057e+00    1.146479e+02
  8.268173e+00    1.145695e+02
  8.271289e+00    1.148626e+02
  8.274405e+00    1.157440e+02
  8.277521e+00    1.160785e+02
  8.280637e+00    1.158910e+02
  8.283753e+00    1.158685e+02
  8.286869e+00    1.159543e+02
  8.289985e+00    1.168110e+02
  8.293101e+00    1.173234e+02
  8.296217e+00    1.174154e+02
  8.299333e+00    1.172233e+02
  8.302449e+00    1.171462e+02
  8.305565e+00    1.170123e+02
  8.308681e+00    1.168382e+02
  8.311796e+00    1.168664e+02
  8.314912e+00    1.164553e+02
  8.318028e+00    1.160831e+02
  8.321144e+00    1.157491e+02
  8.324260e+00    1.156246e+02
  8.327376e+00    1.155541e+02
  8.330492e+00    1.149966e+02
  8.333608e+00    1.145652e+02
  8.336724e+00    1.144977e+02
  8.339840e+00    1.146491e+02
  8.342956e+00    1.150220e+02
  8.346072e+00    1.151078e+02
  8.349188e+00    1.155782e+02
  8.352304e+00    1.160771e+02
  8.355420e+00    1.169134e+02
  8.358536e+00    1.184664e+02
  8.361652e+00    1.212770e+02
  8.364768e+00    1.261645e+02
  8.367884e+00    1.327439e+02
  8.371000e+00    1.413744e+02
  8.374115e+00    1.515493e+02
  8.377231e+00    1.618217e+02
  8.380347e+00    1.697022e+02
  8.383463e+00    1.738707e+02
  8.386579e+00    1.738209e+02
  8.389695e+00    1.713853e+02
  8.392811e+00    1.649011e+02
  8.395927e+00    1.567766e+02
  8.399043e+00    1.469739e+02
  8.402159e+00    1.379014e+02
  8.405275e+00    1.304497e+02
  8.408391e+00    1.246814e+02
  8.411507e+00    1.213300e+02
  8.414623e+00    1.192104e+02
  8.417739e+00    1.177432e+02
  8.420855e+00    1.165488e+02
  8.423971e+00    1.160853e+02
  8.427087e+00    1.158661e+02
  8.430203e+00    1.161534e+02
  8.433319e+00    1.161746e+02
  8.436434e+00    1.163467e+02
  8.439550e+00    1.165848e+02
  8.442666e+00    1.170083e+02
  8.445782e+00    1.171865e+02
  8.448898e+00    1.173302e+02
  8.452014e+00    1.174152e+02
  8.455130e+00    1.179673e+02
  8.458246e+00    1.178565e+02
  8.461362e+00    1.173769e+02
  8.464478e+00    1.172754e+02
  8.467594e+00    1.179678e+02
  8.470710e+00    1.185585e+02
  8.473826e+00    1.185500e+02
  8.476942e+00    1.180890e+02
  8.480058e+00    1.182926e+02
  8.483174e+00    1.186450e+02
  8.486290e+00    1.193411e+02
  8.489406e+00    1.195195e+02
  8.492522e+00    1.197120e+02
  8.495638e+00    1.197287e+02
  8.498753e+00    1.205568e+02
  8.501869e+00    1.211528e+02
  8.504985e+00    1.214018e+02
  8.508101e+00    1.214110e+02
  8.511217e+00    1.218628e+02
  8.514333e+00    1.225974e+02
  8.517449e+00    1.236296e+02
  8.520565e+00    1.248063e+02
  8.523681e+00    1.260058e+02
  8.526797e+00    1.276703e+02
  8.529913e+00    1.303548e+02
  8.533029e+00    1.353968e+02
  8.536145e+00    1.435466e+02
  8.539261e+00    1.554676e+02
  8.542377e+00    1.726651e+02
  8.545493e+00    1.929421e+02
  8.548609e+00    2.162313e+02
  8.551725e+00    2.334133e+02
  8.554841e+00    2.463709e+02
  8.557957e+00    2.427378e+02
  8.561072e+00    2.304505e+02
  8.564188e+00    2.205167e+02
  8.567304e+00    2.094209e+02
  8.570420e+00    2.061403e+02
  8.573536e+00    1.973970e+02
  8.576652e+00    1.907523e+02
  8.579768e+00    1.853060e+02
  8.582884e+00    1.831666e+02
  8.586000e+00    1.872488e+02
  8.589116e+00    1.919579e+02
  8.592232e+00    1.973725e+02
  8.595348e+00    2.001660e+02
  8.598464e+00    1.986208e+02
  8.601580e+00    1.934474e+02
  8.604696e+00    1.834513e+02
  8.607812e+00    1.695094e+02
  8.610928e+00    1.561391e+02
  8.614044e+00    1.443331e+02
  8.617160e+00    1.353748e+02
  8.620276e+00    1.298789e+02
  8.623391e+00    1.267949e+02
  8.626507e+00    1.250375e+02
  8.629623e+00    1.237093e+02
  8.632739e+00    1.229311e+02
  8.635855e+00    1.225187e+02
  8.638971e+00    1.228138e+02
  8.642087e+00    1.225421e+02
  8.645203e+00    1.226079e+02
  8.648319e+00    1.230026e+02
  8.651435e+00    1.235602e+02
  8.654551e+00    1.233737e+02
  8.657667e+00    1.224106e+02
  8.660783e+00    1.221280e+02
  8.663899e+00    1.227393e+02
  8.667015e+00    1.246723e+02
  8.670131e+00    1.283725e+02
  8.673247e+00    1.342214e+02
  8.676363e+00    1.427843e+02
  8.679479e+00    1.559006e+02
  8.682595e+00    1.744555e+02
  8.685710e+00    1.960532e+02
  8.688826e+00    2.196611e+02
  8.691942e+00    2.418921e+02
  8.695058e+00    2.570844e+02
  8.698174e+00    2.638026e+02
  8.701290e+00    2.597948e+02
  8.704406e+00    2.433426e+02
  8.707522e+00    2.209843e+02
  8.710638e+00    1.953415e+02
  8.713754e+00    1.718935e+02
  8.716870e+00    1.542799e+02
  8.719986e+00    1.420280e+02
  8.723102e+00    1.353063e+02
  8.726218e+00    1.317799e+02
  8.729334e+00    1.298373e+02
  8.732450e+00    1.280772e+02
  8.735566e+00    1.266323e+02
  8.738682e+00    1.253105e+02
  8.741798e+00    1.239672e+02
  8.744914e+00    1.228975e+02
  8.748029e+00    1.210575e+02
  8.751145e+00    1.198957e+02
  8.754261e+00    1.190379e+02
  8.757377e+00    1.184886e+02
  8.760493e+00    1.179196e+02
  8.763609e+00    1.187849e+02
  8.766725e+00    1.198667e+02
  8.769841e+00    1.205204e+02
  8.772957e+00    1.211569e+02
  8.776073e+00    1.220983e+02
  8.779189e+00    1.225594e+02
  8.782305e+00    1.224143e+02
  8.785421e+00    1.226648e+02
  8.788537e+00    1.234344e+02
  8.791653e+00    1.242682e+02
  8.794769e+00    1.248692e+02
  8.797885e+00    1.282747e+02
  8.801001e+00    1.362161e+02
  8.804117e+00    1.458182e+02
  8.807233e+00    1.652102e+02
  8.810348e+00    1.781546e+02
  8.813464e+00    1.845379e+02
  8.816580e+00    1.810234e+02
  8.819696e+00    1.811086e+02
  8.822812e+00    1.970258e+02
  8.825928e+00    2.284285e+02
  8.829044e+00    2.636402e+02
  8.832160e+00    2.441491e+02
  8.835276e+00    2.115376e+02
  8.838392e+00    1.578291e+02
  8.841508e+00    1.356832e+02
  8.844624e+00    1.260353e+02
  8.847740e+00    1.206353e+02
  8.850856e+00    1.190780e+02
  8.853972e+00    1.176152e+02
  8.857088e+00    1.165448e+02
  8.860204e+00    1.150831e+02
  8.863320e+00    1.149850e+02
  8.866436e+00    1.143235e+02
  8.869552e+00    1.134749e+02
  8.872667e+00    1.130898e+02
  8.875783e+00    1.123734e+02
  8.878899e+00    1.117934e+02
  8.882015e+00    1.116353e+02
  8.885131e+00    1.128486e+02
  8.888247e+00    1.139845e+02
  8.891363e+00    1.137572e+02
  8.894479e+00    1.133735e+02
  8.897595e+00    1.138615e+02
  8.900711e+00    1.144676e+02
  8.903827e+00    1.141209e+02
  8.906943e+00    1.133036e+02
  8.910059e+00    1.124969e+02
  8.913175e+00    1.121076e+02
  8.916291e+00    1.116424e+02
  8.919407e+00    1.116257e+02
  8.922523e+00    1.111346e+02
  8.925639e+00    1.108806e+02
  8.928755e+00    1.112475e+02
  8.931871e+00    1.118230e+02
  8.934986e+00    1.121898e+02
  8.938102e+00    1.113474e+02
  8.941218e+00    1.104161e+02
  8.944334e+00    1.093386e+02
  8.947450e+00    1.087322e+02
  8.950566e+00    1.075353e+02
  8.953682e+00    1.065785e+02
  8.956798e+00    1.053950e+02
  8.959914e+00    1.048505e+02
  8.963030e+00    1.040906e+02
  8.966146e+00    1.034356e+02
  8.969262e+00    1.035594e+02
  8.972378e+00    1.043284e+02
  8.975494e+00    1.053719e+02
  8.978610e+00    1.056324e+02
  8.981726e+00    1.056945e+02
  8.984842e+00    1.048847e+02
  8.987958e+00    1.039745e+02
  8.991074e+00    1.029818e+02
  8.994190e+00    1.031390e+02
  8.997305e+00    1.025459e+02
  9.000421e+00    1.025613e+02
  9.003537e+00    1.017718e+02
  9.006653e+00    1.010885e+02
  9.009769e+00    1.009496e+02
  9.012885e+00    1.008346e+02
  9.016001e+00    1.008861e+02
  9.019117e+00    9.989771e+01
  9.022233e+00    9.816039e+01
  9.025349e+00    9.654694e+01
  9.028465e+00    9.622033e+01
  9.031581e+00    9.656967e+01
  9.034697e+00    9.641148e+01
  9.037813e+00    9.567200e+01
  9.040929e+00    9.605865e+01
  9.044045e+00    9.499030e+01
  9.047161e+00    9.420335e+01
  9.050277e+00    9.536847e+01
  9.053393e+00    9.712661e+01
  9.056509e+00    9.885832e+01
  9.059624e+00    9.963609e+01
  9.062740e+00    1.022107e+02
  9.065856e+00    1.040036e+02
  9.068972e+00    1.046771e+02
  9.072088e+00    1.038134e+02
  9.075204e+00    1.063605e+02
  9.078320e+00    1.109772e+02
  9.081436e+00    1.189212e+02
  9.084552e+00    1.271808e+02
  9.087668e+00    1.335317e+02
  9.090784e+00    1.392635e+02
  9.093900e+00    1.411913e+02
  9.097016e+00    1.387761e+02
  9.100132e+00    1.364808e+02
  9.103248e+00    1.287352e+02
  9.106364e+00    1.201341e+02
  9.109480e+00    1.118731e+02
  9.112596e+00    1.050873e+02
  9.115712e+00    9.699798e+01
  9.118828e+00    9.266621e+01
  9.121943e+00    8.988965e+01
  9.125059e+00    8.825331e+01
  9.128175e+00    8.703098e+01
  9.131291e+00    8.528035e+01
  9.134407e+00    8.356924e+01
  9.137523e+00    8.260757e+01
  9.140639e+00    8.230003e+01
  9.143755e+00    8.254969e+01
  9.146871e+00    8.412589e+01
  9.149987e+00    8.420495e+01
  9.153103e+00    8.324030e+01
  9.156219e+00    8.202839e+01
  9.159335e+00    8.103157e+01
  9.162451e+00    8.110112e+01
  9.165567e+00    8.240313e+01
  9.168683e+00    8.533070e+01
  9.171799e+00    8.898565e+01
  9.174915e+00    9.269215e+01
  9.178031e+00    1.008661e+02
  9.181147e+00    1.115452e+02
  9.184262e+00    1.209150e+02
  9.187378e+00    1.300555e+02
  9.190494e+00    1.374090e+02
  9.193610e+00    1.408369e+02
  9.196726e+00    1.425465e+02
  9.199842e+00    1.372316e+02
  9.202958e+00    1.353255e+02
  9.206074e+00    1.314578e+02
  9.209190e+00    1.211507e+02
  9.212306e+00    1.100006e+02
  9.215422e+00    1.037549e+02
  9.218538e+00    9.939214e+01
  9.221654e+00    9.804948e+01
  9.224770e+00    1.016521e+02
  9.227886e+00    1.064169e+02
  9.231002e+00    1.152183e+02
  9.234118e+00    1.288532e+02
  9.237234e+00    1.340980e+02
  9.240350e+00    1.371686e+02
  9.243466e+00    1.165299e+02
  9.246581e+00    1.062282e+02
  9.249697e+00    9.647842e+01
  9.252813e+00    8.965897e+01
  9.255929e+00    8.902679e+01
  9.259045e+00    8.794563e+01
  9.262161e+00    8.617052e+01
  9.265277e+00    7.970538e+01
  9.268393e+00    7.556842e+01
  9.271509e+00    7.183524e+01
  9.274625e+00    6.280318e+01
  9.277741e+00    5.977411e+01
  9.280857e+00    5.638653e+01
  9.283973e+00    5.088996e+01
  9.287089e+00    4.368529e+01
  9.290205e+00    3.959932e+01
  9.293321e+00    3.667480e+01
  9.296437e+00    2.810611e+01
  9.299553e+00    2.431564e+01
  9.302669e+00    2.065330e+01
  9.305785e+00    1.796188e+01
  9.308900e+00    1.402016e+01
  9.312016e+00    1.033617e+01
  9.315132e+00    5.047888e+00
  9.318248e+00    1.394845e+00
  9.321364e+00    8.187649e-02
  9.324480e+00   -1.099485e+00
  9.327596e+00   -1.268043e+00
  9.330712e+00    4.350534e-01
  9.333828e+00    5.796540e-01
  9.336944e+00   -4.150488e+00
  9.340060e+00   -9.245886e+00
  9.343176e+00   -9.051681e+00
  9.346292e+00    0.000000e+00
