# == pyFAI calibration ==
# SplineFile: None
# PixelSize: 2.000e-04, 2.000e-04 m
# PONI: 1.995e-01, 2.016e-01 m
# Distance Sample to Detector: 1.79502286468 m
# Rotations: -0.004483 0.004646 0.000019 rad
# 
# == Fit2d calibration ==
# Distance Sample-beamCenter: 1795.060 mm
# Center: x=1048.052, y=1039.198 pix
# Tilt: 0.370 deg  TiltPlanRot: 46.021 deg
# 
# Wavelength: 1.4235e-11
# Polarization factor: None
# Normalization factor: 1.0
# --> /Volumes/desy/desy_2018/TiAlNi/TiAlNi_1-00201.txt
#       2th_deg             I 
  1.557975e-03   -2.919349e+00
  4.673925e-03    9.517887e-02
  7.789875e-03    1.724272e+00
  1.090582e-02    2.409064e+00
  1.402177e-02    3.809896e+00
  1.713772e-02    3.214017e+00
  2.025367e-02    5.932894e+00
  2.336962e-02    9.043430e+00
  2.648557e-02    9.060267e+00
  2.960152e-02    6.983765e+00
  3.271747e-02    3.521332e+00
  3.583342e-02    3.074747e+00
  3.894937e-02    3.337474e+00
  4.206532e-02    5.851365e+00
  4.518127e-02    6.131235e+00
  4.829722e-02    5.645388e+00
  5.141317e-02    5.137529e+00
  5.452912e-02    5.143750e+00
  5.764507e-02    3.980431e+00
  6.076102e-02    5.942297e+00
  6.387697e-02    6.449849e+00
  6.699292e-02    6.982409e+00
  7.010887e-02    5.828470e+00
  7.322482e-02    5.670035e+00
  7.634077e-02    4.985866e+00
  7.945672e-02    6.093483e+00
  8.257267e-02    5.292033e+00
  8.568862e-02    4.905094e+00
  8.880457e-02    3.021890e+00
  9.192052e-02    4.714290e+00
  9.503647e-02    5.081890e+00
  9.815242e-02    4.921505e+00
  1.012684e-01    4.586665e+00
  1.043843e-01    4.427030e+00
  1.075003e-01    3.826889e+00
  1.106162e-01    3.537117e+00
  1.137322e-01    5.196863e+00
  1.168481e-01    6.816761e+00
  1.199641e-01    7.170834e+00
  1.230800e-01    5.997100e+00
  1.261960e-01    5.283778e+00
  1.293119e-01    6.217640e+00
  1.324279e-01    7.996204e+00
  1.355438e-01    8.122185e+00
  1.386598e-01    7.254687e+00
  1.417757e-01    6.723373e+00
  1.448917e-01    6.871148e+00
  1.480076e-01    7.656978e+00
  1.511236e-01    7.662839e+00
  1.542395e-01    8.641043e+00
  1.573555e-01    8.352736e+00
  1.604714e-01    9.933824e+00
  1.635874e-01    1.084894e+01
  1.667033e-01    1.273852e+01
  1.698193e-01    1.466832e+01
  1.729352e-01    1.816272e+01
  1.760512e-01    2.018018e+01
  1.791671e-01    2.362085e+01
  1.822831e-01    2.673985e+01
  1.853990e-01    2.841289e+01
  1.885150e-01    2.827815e+01
  1.916309e-01    2.946507e+01
  1.947469e-01    3.191600e+01
  1.978628e-01    3.407637e+01
  2.009788e-01    3.544209e+01
  2.040947e-01    3.776328e+01
  2.072107e-01    4.037300e+01
  2.103266e-01    4.265453e+01
  2.134426e-01    4.472059e+01
  2.165585e-01    4.634074e+01
  2.196745e-01    4.794203e+01
  2.227904e-01    4.845841e+01
  2.259064e-01    4.983597e+01
  2.290223e-01    5.126779e+01
  2.321383e-01    5.318069e+01
  2.352542e-01    5.572968e+01
  2.383702e-01    5.805816e+01
  2.414861e-01    5.835371e+01
  2.446021e-01    5.973526e+01
  2.477180e-01    6.170630e+01
  2.508340e-01    6.050819e+01
  2.539499e-01    5.917810e+01
  2.570659e-01    6.197311e+01
  2.601818e-01    6.516216e+01
  2.632978e-01    6.747247e+01
  2.664137e-01    6.952927e+01
  2.695297e-01    7.256713e+01
  2.726456e-01    7.575062e+01
  2.757616e-01    7.763384e+01
  2.788775e-01    7.883058e+01
  2.819935e-01    7.947942e+01
  2.851094e-01    8.045106e+01
  2.882254e-01    8.270672e+01
  2.913413e-01    8.418413e+01
  2.944573e-01    8.554424e+01
  2.975732e-01    8.705962e+01
  3.006892e-01    8.800376e+01
  3.038051e-01    8.863106e+01
  3.069211e-01    9.031084e+01
  3.100370e-01    9.150506e+01
  3.131530e-01    9.281727e+01
  3.162689e-01    9.472637e+01
  3.193849e-01    9.692108e+01
  3.225008e-01    9.770377e+01
  3.256168e-01    9.852396e+01
  3.287327e-01    9.889037e+01
  3.318487e-01    9.985495e+01
  3.349646e-01    1.007572e+02
  3.380806e-01    1.032017e+02
  3.411965e-01    1.049834e+02
  3.443125e-01    1.065685e+02
  3.474284e-01    1.086586e+02
  3.505444e-01    1.111923e+02
  3.536603e-01    1.133924e+02
  3.567763e-01    1.153097e+02
  3.598922e-01    1.163212e+02
  3.630082e-01    1.183536e+02
  3.661241e-01    1.197722e+02
  3.692401e-01    1.214044e+02
  3.723560e-01    1.226472e+02
  3.754720e-01    1.242731e+02
  3.785879e-01    1.259329e+02
  3.817039e-01    1.272102e+02
  3.848198e-01    1.282631e+02
  3.879358e-01    1.296792e+02
  3.910517e-01    1.317478e+02
  3.941677e-01    1.338112e+02
  3.972836e-01    1.353214e+02
  4.003996e-01    1.355625e+02
  4.035155e-01    1.371180e+02
  4.066315e-01    1.390108e+02
  4.097474e-01    1.409375e+02
  4.128634e-01    1.427926e+02
  4.159793e-01    1.445466e+02
  4.190953e-01    1.459696e+02
  4.222112e-01    1.473779e+02
  4.253272e-01    1.504045e+02
  4.284431e-01    1.527624e+02
  4.315591e-01    1.545870e+02
  4.346750e-01    1.562957e+02
  4.377910e-01    1.589172e+02
  4.409069e-01    1.611100e+02
  4.440229e-01    1.627983e+02
  4.471388e-01    1.643260e+02
  4.502548e-01    1.669891e+02
  4.533707e-01    1.692179e+02
  4.564867e-01    1.708394e+02
  4.596026e-01    1.726861e+02
  4.627186e-01    1.743085e+02
  4.658345e-01    1.766567e+02
  4.689505e-01    1.785083e+02
  4.720664e-01    1.803068e+02
  4.751824e-01    1.818368e+02
  4.782983e-01    1.833623e+02
  4.814143e-01    1.845714e+02
  4.845302e-01    1.853568e+02
  4.876462e-01    1.866102e+02
  4.907621e-01    1.873767e+02
  4.938781e-01    1.887043e+02
  4.969940e-01    1.887454e+02
  5.001100e-01    1.888800e+02
  5.032259e-01    1.895992e+02
  5.063419e-01    1.899361e+02
  5.094578e-01    1.903516e+02
  5.125738e-01    1.895013e+02
  5.156897e-01    1.894878e+02
  5.188057e-01    1.894066e+02
  5.219216e-01    1.904156e+02
  5.250376e-01    1.915333e+02
  5.281535e-01    1.918806e+02
  5.312695e-01    1.920130e+02
  5.343854e-01    1.922483e+02
  5.375014e-01    1.929044e+02
  5.406173e-01    1.937208e+02
  5.437333e-01    1.950582e+02
  5.468492e-01    1.959266e+02
  5.499652e-01    1.957056e+02
  5.530811e-01    1.951633e+02
  5.561971e-01    1.948242e+02
  5.593130e-01    1.945210e+02
  5.624290e-01    1.939942e+02
  5.655449e-01    1.938518e+02
  5.686609e-01    1.941053e+02
  5.717768e-01    1.942444e+02
  5.748928e-01    1.938797e+02
  5.780087e-01    1.935931e+02
  5.811247e-01    1.932714e+02
  5.842406e-01    1.922450e+02
  5.873566e-01    1.916117e+02
  5.904725e-01    1.913807e+02
  5.935885e-01    1.913975e+02
  5.967044e-01    1.913111e+02
  5.998204e-01    1.912122e+02
  6.029363e-01    1.900598e+02
  6.060523e-01    1.895367e+02
  6.091682e-01    1.897583e+02
  6.122842e-01    1.900048e+02
  6.154001e-01    1.893350e+02
  6.185161e-01    1.892219e+02
  6.216320e-01    1.889730e+02
  6.247480e-01    1.892044e+02
  6.278639e-01    1.895850e+02
  6.309799e-01    1.892872e+02
  6.340958e-01    1.899431e+02
  6.372118e-01    1.901095e+02
  6.403277e-01    1.901873e+02
  6.434437e-01    1.895377e+02
  6.465596e-01    1.894017e+02
  6.496756e-01    1.892649e+02
  6.527915e-01    1.895272e+02
  6.559075e-01    1.893821e+02
  6.590234e-01    1.895434e+02
  6.621394e-01    1.894887e+02
  6.652553e-01    1.896081e+02
  6.683713e-01    1.891696e+02
  6.714872e-01    1.892829e+02
  6.746032e-01    1.888966e+02
  6.777191e-01    1.892769e+02
  6.808351e-01    1.892502e+02
  6.839510e-01    1.887938e+02
  6.870670e-01    1.880794e+02
  6.901829e-01    1.877473e+02
  6.932989e-01    1.871332e+02
  6.964148e-01    1.870985e+02
  6.995308e-01    1.877242e+02
  7.026467e-01    1.878052e+02
  7.057627e-01    1.871978e+02
  7.088786e-01    1.864779e+02
  7.119946e-01    1.859619e+02
  7.151105e-01    1.854079e+02
  7.182265e-01    1.847363e+02
  7.213424e-01    1.847227e+02
  7.244584e-01    1.854191e+02
  7.275743e-01    1.857825e+02
  7.306903e-01    1.853225e+02
  7.338062e-01    1.845383e+02
  7.369222e-01    1.838235e+02
  7.400381e-01    1.837186e+02
  7.431541e-01    1.837868e+02
  7.462700e-01    1.839869e+02
  7.493860e-01    1.843024e+02
  7.525019e-01    1.839105e+02
  7.556179e-01    1.835812e+02
  7.587338e-01    1.834150e+02
  7.618498e-01    1.834653e+02
  7.649657e-01    1.830406e+02
  7.680817e-01    1.825854e+02
  7.711976e-01    1.827769e+02
  7.743136e-01    1.819275e+02
  7.774295e-01    1.811435e+02
  7.805455e-01    1.802372e+02
  7.836614e-01    1.804485e+02
  7.867774e-01    1.806635e+02
  7.898933e-01    1.804866e+02
  7.930093e-01    1.799173e+02
  7.961252e-01    1.797246e+02
  7.992412e-01    1.793701e+02
  8.023571e-01    1.791185e+02
  8.054731e-01    1.783454e+02
  8.085890e-01    1.773067e+02
  8.117050e-01    1.770670e+02
  8.148209e-01    1.780586e+02
  8.179369e-01    1.779680e+02
  8.210528e-01    1.765004e+02
  8.241688e-01    1.759757e+02
  8.272847e-01    1.762698e+02
  8.304007e-01    1.755928e+02
  8.335166e-01    1.751731e+02
  8.366326e-01    1.751978e+02
  8.397485e-01    1.754629e+02
  8.428645e-01    1.753911e+02
  8.459804e-01    1.749179e+02
  8.490964e-01    1.742942e+02
  8.522123e-01    1.739628e+02
  8.553283e-01    1.736596e+02
  8.584442e-01    1.731742e+02
  8.615602e-01    1.722933e+02
  8.646761e-01    1.717970e+02
  8.677921e-01    1.717191e+02
  8.709080e-01    1.710004e+02
  8.740240e-01    1.708144e+02
  8.771399e-01    1.707018e+02
  8.802559e-01    1.705857e+02
  8.833718e-01    1.700152e+02
  8.864878e-01    1.699992e+02
  8.896037e-01    1.693792e+02
  8.927197e-01    1.692300e+02
  8.958356e-01    1.689388e+02
  8.989516e-01    1.686349e+02
  9.020675e-01    1.685378e+02
  9.051835e-01    1.691613e+02
  9.082994e-01    1.692083e+02
  9.114154e-01    1.683442e+02
  9.145313e-01    1.669960e+02
  9.176473e-01    1.665882e+02
  9.207632e-01    1.669236e+02
  9.238792e-01    1.672625e+02
  9.269951e-01    1.668129e+02
  9.301111e-01    1.667107e+02
  9.332270e-01    1.658005e+02
  9.363430e-01    1.651280e+02
  9.394589e-01    1.642693e+02
  9.425749e-01    1.640381e+02
  9.456908e-01    1.640460e+02
  9.488068e-01    1.644065e+02
  9.519227e-01    1.642917e+02
  9.550387e-01    1.635211e+02
  9.581546e-01    1.622957e+02
  9.612706e-01    1.617071e+02
  9.643865e-01    1.615931e+02
  9.675025e-01    1.615081e+02
  9.706184e-01    1.612141e+02
  9.737344e-01    1.610627e+02
  9.768503e-01    1.603488e+02
  9.799663e-01    1.597880e+02
  9.830822e-01    1.596745e+02
  9.861982e-01    1.597195e+02
  9.893141e-01    1.592814e+02
  9.924301e-01    1.584493e+02
  9.955460e-01    1.578330e+02
  9.986620e-01    1.573772e+02
  1.001778e+00    1.572046e+02
  1.004894e+00    1.569484e+02
  1.008010e+00    1.567020e+02
  1.011126e+00    1.565702e+02
  1.014242e+00    1.567015e+02
  1.017358e+00    1.563723e+02
  1.020474e+00    1.555845e+02
  1.023590e+00    1.545502e+02
  1.026706e+00    1.540434e+02
  1.029821e+00    1.538100e+02
  1.032937e+00    1.539840e+02
  1.036053e+00    1.535863e+02
  1.039169e+00    1.528804e+02
  1.042285e+00    1.525679e+02
  1.045401e+00    1.524413e+02
  1.048517e+00    1.519760e+02
  1.051633e+00    1.515076e+02
  1.054749e+00    1.509077e+02
  1.057865e+00    1.512380e+02
  1.060981e+00    1.511850e+02
  1.064097e+00    1.509236e+02
  1.067213e+00    1.501727e+02
  1.070329e+00    1.502456e+02
  1.073445e+00    1.499881e+02
  1.076561e+00    1.491832e+02
  1.079677e+00    1.485106e+02
  1.082793e+00    1.488578e+02
  1.085909e+00    1.485164e+02
  1.089025e+00    1.480177e+02
  1.092140e+00    1.480272e+02
  1.095256e+00    1.478779e+02
  1.098372e+00    1.475916e+02
  1.101488e+00    1.470658e+02
  1.104604e+00    1.467316e+02
  1.107720e+00    1.462557e+02
  1.110836e+00    1.458464e+02
  1.113952e+00    1.455638e+02
  1.117068e+00    1.457580e+02
  1.120184e+00    1.456216e+02
  1.123300e+00    1.454284e+02
  1.126416e+00    1.449635e+02
  1.129532e+00    1.446740e+02
  1.132648e+00    1.439826e+02
  1.135764e+00    1.440494e+02
  1.138880e+00    1.435152e+02
  1.141996e+00    1.427499e+02
  1.145112e+00    1.418223e+02
  1.148228e+00    1.414510e+02
  1.151344e+00    1.414523e+02
  1.154459e+00    1.412796e+02
  1.157575e+00    1.412716e+02
  1.160691e+00    1.411989e+02
  1.163807e+00    1.407770e+02
  1.166923e+00    1.405476e+02
  1.170039e+00    1.400576e+02
  1.173155e+00    1.399695e+02
  1.176271e+00    1.397245e+02
  1.179387e+00    1.402755e+02
  1.182503e+00    1.399194e+02
  1.185619e+00    1.393755e+02
  1.188735e+00    1.387029e+02
  1.191851e+00    1.388591e+02
  1.194967e+00    1.385984e+02
  1.198083e+00    1.385756e+02
  1.201199e+00    1.382500e+02
  1.204315e+00    1.382217e+02
  1.207431e+00    1.378892e+02
  1.210547e+00    1.374649e+02
  1.213663e+00    1.370107e+02
  1.216778e+00    1.371216e+02
  1.219894e+00    1.370089e+02
  1.223010e+00    1.368851e+02
  1.226126e+00    1.366990e+02
  1.229242e+00    1.363586e+02
  1.232358e+00    1.362190e+02
  1.235474e+00    1.361310e+02
  1.238590e+00    1.357772e+02
  1.241706e+00    1.355635e+02
  1.244822e+00    1.352321e+02
  1.247938e+00    1.350331e+02
  1.251054e+00    1.344721e+02
  1.254170e+00    1.341566e+02
  1.257286e+00    1.339895e+02
  1.260402e+00    1.337807e+02
  1.263518e+00    1.333346e+02
  1.266634e+00    1.332496e+02
  1.269750e+00    1.332273e+02
  1.272866e+00    1.330798e+02
  1.275982e+00    1.326861e+02
  1.279097e+00    1.323309e+02
  1.282213e+00    1.326653e+02
  1.285329e+00    1.328852e+02
  1.288445e+00    1.324635e+02
  1.291561e+00    1.320405e+02
  1.294677e+00    1.313558e+02
  1.297793e+00    1.311056e+02
  1.300909e+00    1.308023e+02
  1.304025e+00    1.305869e+02
  1.307141e+00    1.304109e+02
  1.310257e+00    1.300318e+02
  1.313373e+00    1.294783e+02
  1.316489e+00    1.291855e+02
  1.319605e+00    1.292387e+02
  1.322721e+00    1.294251e+02
  1.325837e+00    1.292421e+02
  1.328953e+00    1.290589e+02
  1.332069e+00    1.285905e+02
  1.335185e+00    1.279462e+02
  1.338301e+00    1.272016e+02
  1.341416e+00    1.270964e+02
  1.344532e+00    1.272839e+02
  1.347648e+00    1.271738e+02
  1.350764e+00    1.271840e+02
  1.353880e+00    1.272744e+02
  1.356996e+00    1.270771e+02
  1.360112e+00    1.269201e+02
  1.363228e+00    1.266826e+02
  1.366344e+00    1.265989e+02
  1.369460e+00    1.261471e+02
  1.372576e+00    1.255858e+02
  1.375692e+00    1.257478e+02
  1.378808e+00    1.257555e+02
  1.381924e+00    1.258852e+02
  1.385040e+00    1.259995e+02
  1.388156e+00    1.255402e+02
  1.391272e+00    1.255696e+02
  1.394388e+00    1.253488e+02
  1.397504e+00    1.248266e+02
  1.400619e+00    1.242790e+02
  1.403735e+00    1.243833e+02
  1.406851e+00    1.238429e+02
  1.409967e+00    1.234102e+02
  1.413083e+00    1.230993e+02
  1.416199e+00    1.228288e+02
  1.419315e+00    1.224551e+02
  1.422431e+00    1.224292e+02
  1.425547e+00    1.221880e+02
  1.428663e+00    1.219641e+02
  1.431779e+00    1.219191e+02
  1.434895e+00    1.219610e+02
  1.438011e+00    1.218216e+02
  1.441127e+00    1.219096e+02
  1.444243e+00    1.223115e+02
  1.447359e+00    1.221132e+02
  1.450475e+00    1.215465e+02
  1.453591e+00    1.209111e+02
  1.456707e+00    1.206737e+02
  1.459823e+00    1.205071e+02
  1.462938e+00    1.203196e+02
  1.466054e+00    1.202443e+02
  1.469170e+00    1.200169e+02
  1.472286e+00    1.197716e+02
  1.475402e+00    1.194931e+02
  1.478518e+00    1.188884e+02
  1.481634e+00    1.186297e+02
  1.484750e+00    1.185848e+02
  1.487866e+00    1.185721e+02
  1.490982e+00    1.184989e+02
  1.494098e+00    1.181335e+02
  1.497214e+00    1.177070e+02
  1.500330e+00    1.175391e+02
  1.503446e+00    1.175184e+02
  1.506562e+00    1.177529e+02
  1.509678e+00    1.177777e+02
  1.512794e+00    1.173731e+02
  1.515910e+00    1.170008e+02
  1.519026e+00    1.166340e+02
  1.522142e+00    1.162177e+02
  1.525257e+00    1.162879e+02
  1.528373e+00    1.164176e+02
  1.531489e+00    1.164925e+02
  1.534605e+00    1.163859e+02
  1.537721e+00    1.160612e+02
  1.540837e+00    1.160222e+02
  1.543953e+00    1.158206e+02
  1.547069e+00    1.157675e+02
  1.550185e+00    1.154780e+02
  1.553301e+00    1.153256e+02
  1.556417e+00    1.151618e+02
  1.559533e+00    1.150942e+02
  1.562649e+00    1.149550e+02
  1.565765e+00    1.150475e+02
  1.568881e+00    1.150224e+02
  1.571997e+00    1.153257e+02
  1.575113e+00    1.165710e+02
  1.578229e+00    1.190020e+02
  1.581345e+00    1.217042e+02
  1.584461e+00    1.235594e+02
  1.587576e+00    1.236041e+02
  1.590692e+00    1.221357e+02
  1.593808e+00    1.194711e+02
  1.596924e+00    1.167579e+02
  1.600040e+00    1.148681e+02
  1.603156e+00    1.140143e+02
  1.606272e+00    1.133473e+02
  1.609388e+00    1.127747e+02
  1.612504e+00    1.124482e+02
  1.615620e+00    1.123910e+02
  1.618736e+00    1.122734e+02
  1.621852e+00    1.122566e+02
  1.624968e+00    1.120333e+02
  1.628084e+00    1.118001e+02
  1.631200e+00    1.116596e+02
  1.634316e+00    1.113623e+02
  1.637432e+00    1.109348e+02
  1.640548e+00    1.109458e+02
  1.643664e+00    1.113025e+02
  1.646780e+00    1.111979e+02
  1.649895e+00    1.109016e+02
  1.653011e+00    1.108132e+02
  1.656127e+00    1.106889e+02
  1.659243e+00    1.109498e+02
  1.662359e+00    1.110103e+02
  1.665475e+00    1.111958e+02
  1.668591e+00    1.107632e+02
  1.671707e+00    1.104473e+02
  1.674823e+00    1.103078e+02
  1.677939e+00    1.105013e+02
  1.681055e+00    1.102835e+02
  1.684171e+00    1.099495e+02
  1.687287e+00    1.097847e+02
  1.690403e+00    1.097623e+02
  1.693519e+00    1.100500e+02
  1.696635e+00    1.100629e+02
  1.699751e+00    1.100623e+02
  1.702867e+00    1.100793e+02
  1.705983e+00    1.111584e+02
  1.709099e+00    1.127840e+02
  1.712214e+00    1.144871e+02
  1.715330e+00    1.155467e+02
  1.718446e+00    1.158169e+02
  1.721562e+00    1.159781e+02
  1.724678e+00    1.159892e+02
  1.727794e+00    1.161176e+02
  1.730910e+00    1.160914e+02
  1.734026e+00    1.151986e+02
  1.737142e+00    1.133695e+02
  1.740258e+00    1.118840e+02
  1.743374e+00    1.103301e+02
  1.746490e+00    1.089810e+02
  1.749606e+00    1.079881e+02
  1.752722e+00    1.075599e+02
  1.755838e+00    1.075130e+02
  1.758954e+00    1.074637e+02
  1.762070e+00    1.076262e+02
  1.765186e+00    1.076871e+02
  1.768302e+00    1.080496e+02
  1.771418e+00    1.078408e+02
  1.774533e+00    1.076583e+02
  1.777649e+00    1.076001e+02
  1.780765e+00    1.079173e+02
  1.783881e+00    1.084224e+02
  1.786997e+00    1.089385e+02
  1.790113e+00    1.100202e+02
  1.793229e+00    1.126584e+02
  1.796345e+00    1.189013e+02
  1.799461e+00    1.283899e+02
  1.802577e+00    1.395566e+02
  1.805693e+00    1.470911e+02
  1.808809e+00    1.487655e+02
  1.811925e+00    1.439965e+02
  1.815041e+00    1.340878e+02
  1.818157e+00    1.242651e+02
  1.821273e+00    1.163398e+02
  1.824389e+00    1.122432e+02
  1.827505e+00    1.095755e+02
  1.830621e+00    1.080255e+02
  1.833737e+00    1.069778e+02
  1.836852e+00    1.065518e+02
  1.839968e+00    1.063182e+02
  1.843084e+00    1.062756e+02
  1.846200e+00    1.058708e+02
  1.849316e+00    1.057887e+02
  1.852432e+00    1.056749e+02
  1.855548e+00    1.056438e+02
  1.858664e+00    1.054341e+02
  1.861780e+00    1.054106e+02
  1.864896e+00    1.053508e+02
  1.868012e+00    1.053193e+02
  1.871128e+00    1.050417e+02
  1.874244e+00    1.052451e+02
  1.877360e+00    1.050532e+02
  1.880476e+00    1.050416e+02
  1.883592e+00    1.044907e+02
  1.886708e+00    1.038467e+02
  1.889824e+00    1.036376e+02
  1.892940e+00    1.038907e+02
  1.896056e+00    1.039275e+02
  1.899171e+00    1.037580e+02
  1.902287e+00    1.035536e+02
  1.905403e+00    1.034430e+02
  1.908519e+00    1.036880e+02
  1.911635e+00    1.036257e+02
  1.914751e+00    1.037017e+02
  1.917867e+00    1.036330e+02
  1.920983e+00    1.035540e+02
  1.924099e+00    1.029279e+02
  1.927215e+00    1.026892e+02
  1.930331e+00    1.026899e+02
  1.933447e+00    1.027555e+02
  1.936563e+00    1.028886e+02
  1.939679e+00    1.030102e+02
  1.942795e+00    1.029401e+02
  1.945911e+00    1.025648e+02
  1.949027e+00    1.019803e+02
  1.952143e+00    1.019034e+02
  1.955259e+00    1.022775e+02
  1.958375e+00    1.023473e+02
  1.961490e+00    1.021766e+02
  1.964606e+00    1.024601e+02
  1.967722e+00    1.027236e+02
  1.970838e+00    1.030130e+02
  1.973954e+00    1.036751e+02
  1.977070e+00    1.044830e+02
  1.980186e+00    1.052921e+02
  1.983302e+00    1.056735e+02
  1.986418e+00    1.049126e+02
  1.989534e+00    1.042142e+02
  1.992650e+00    1.032538e+02
  1.995766e+00    1.024274e+02
  1.998882e+00    1.020209e+02
  2.001998e+00    1.021497e+02
  2.005114e+00    1.023489e+02
  2.008230e+00    1.022467e+02
  2.011346e+00    1.023407e+02
  2.014462e+00    1.023977e+02
  2.017578e+00    1.030998e+02
  2.020694e+00    1.044805e+02
  2.023809e+00    1.072638e+02
  2.026925e+00    1.107088e+02
  2.030041e+00    1.135738e+02
  2.033157e+00    1.149336e+02
  2.036273e+00    1.137223e+02
  2.039389e+00    1.108460e+02
  2.042505e+00    1.071850e+02
  2.045621e+00    1.041920e+02
  2.048737e+00    1.025030e+02
  2.051853e+00    1.012819e+02
  2.054969e+00    1.005903e+02
  2.058085e+00    1.003619e+02
  2.061201e+00    9.993710e+01
  2.064317e+00    1.002358e+02
  2.067433e+00    1.005864e+02
  2.070549e+00    1.003559e+02
  2.073665e+00    9.988090e+01
  2.076781e+00    9.990591e+01
  2.079897e+00    9.986891e+01
  2.083013e+00    9.987501e+01
  2.086128e+00    9.944318e+01
  2.089244e+00    9.928167e+01
  2.092360e+00    9.876814e+01
  2.095476e+00    9.875485e+01
  2.098592e+00    9.923856e+01
  2.101708e+00    9.956868e+01
  2.104824e+00    9.912936e+01
  2.107940e+00    9.914436e+01
  2.111056e+00    9.906911e+01
  2.114172e+00    9.912939e+01
  2.117288e+00    9.877399e+01
  2.120404e+00    9.841699e+01
  2.123520e+00    9.840084e+01
  2.126636e+00    9.859699e+01
  2.129752e+00    9.866040e+01
  2.132868e+00    9.871827e+01
  2.135984e+00    9.892330e+01
  2.139100e+00    9.905898e+01
  2.142216e+00    9.915810e+01
  2.145332e+00    9.923203e+01
  2.148447e+00    9.921329e+01
  2.151563e+00    9.877711e+01
  2.154679e+00    9.844796e+01
  2.157795e+00    9.827586e+01
  2.160911e+00    9.839661e+01
  2.164027e+00    9.870625e+01
  2.167143e+00    9.881037e+01
  2.170259e+00    9.881623e+01
  2.173375e+00    9.863224e+01
  2.176491e+00    9.821120e+01
  2.179607e+00    9.811016e+01
  2.182723e+00    9.829513e+01
  2.185839e+00    9.843919e+01
  2.188955e+00    9.846006e+01
  2.192071e+00    9.828716e+01
  2.195187e+00    9.826029e+01
  2.198303e+00    9.806197e+01
  2.201419e+00    9.771925e+01
  2.204535e+00    9.788606e+01
  2.207651e+00    9.863068e+01
  2.210766e+00    9.913385e+01
  2.213882e+00    9.928905e+01
  2.216998e+00    9.956586e+01
  2.220114e+00    1.004264e+02
  2.223230e+00    1.011378e+02
  2.226346e+00    1.015264e+02
  2.229462e+00    1.014548e+02
  2.232578e+00    1.010999e+02
  2.235694e+00    1.003484e+02
  2.238810e+00    9.928014e+01
  2.241926e+00    9.822986e+01
  2.245042e+00    9.748350e+01
  2.248158e+00    9.734102e+01
  2.251274e+00    9.750158e+01
  2.254390e+00    9.764159e+01
  2.257506e+00    9.759078e+01
  2.260622e+00    9.772531e+01
  2.263738e+00    9.752089e+01
  2.266854e+00    9.751260e+01
  2.269970e+00    9.755937e+01
  2.273085e+00    9.776126e+01
  2.276201e+00    9.782994e+01
  2.279317e+00    9.772765e+01
  2.282433e+00    9.756351e+01
  2.285549e+00    9.759717e+01
  2.288665e+00    9.793374e+01
  2.291781e+00    9.836857e+01
  2.294897e+00    9.837695e+01
  2.298013e+00    9.824955e+01
  2.301129e+00    9.810796e+01
  2.304245e+00    9.792851e+01
  2.307361e+00    9.757459e+01
  2.310477e+00    9.756189e+01
  2.313593e+00    9.748381e+01
  2.316709e+00    9.742171e+01
  2.319825e+00    9.721519e+01
  2.322941e+00    9.720383e+01
  2.326057e+00    9.759352e+01
  2.329173e+00    9.758977e+01
  2.332289e+00    9.755979e+01
  2.335404e+00    9.765125e+01
  2.338520e+00    9.878806e+01
  2.341636e+00    1.004123e+02
  2.344752e+00    1.020013e+02
  2.347868e+00    1.027502e+02
  2.350984e+00    1.023733e+02
  2.354100e+00    1.012225e+02
  2.357216e+00    9.984699e+01
  2.360332e+00    9.845155e+01
  2.363448e+00    9.739040e+01
  2.366564e+00    9.695155e+01
  2.369680e+00    9.676251e+01
  2.372796e+00    9.662281e+01
  2.375912e+00    9.642189e+01
  2.379028e+00    9.632345e+01
  2.382144e+00    9.671503e+01
  2.385260e+00    9.701350e+01
  2.388376e+00    9.755043e+01
  2.391492e+00    9.795713e+01
  2.394608e+00    9.856889e+01
  2.397723e+00    9.951416e+01
  2.400839e+00    1.005193e+02
  2.403955e+00    1.011788e+02
  2.407071e+00    1.013209e+02
  2.410187e+00    1.005838e+02
  2.413303e+00    9.922891e+01
  2.416419e+00    9.807162e+01
  2.419535e+00    9.743051e+01
  2.422651e+00    9.680719e+01
  2.425767e+00    9.661291e+01
  2.428883e+00    9.654033e+01
  2.431999e+00    9.674714e+01
  2.435115e+00    9.662381e+01
  2.438231e+00    9.669797e+01
  2.441347e+00    9.670921e+01
  2.444463e+00    9.674973e+01
  2.447579e+00    9.659852e+01
  2.450695e+00    9.684509e+01
  2.453811e+00    9.704704e+01
  2.456927e+00    9.739498e+01
  2.460042e+00    9.735990e+01
  2.463158e+00    9.734866e+01
  2.466274e+00    9.723064e+01
  2.469390e+00    9.703165e+01
  2.472506e+00    9.649612e+01
  2.475622e+00    9.644396e+01
  2.478738e+00    9.657066e+01
  2.481854e+00    9.703173e+01
  2.484970e+00    9.709641e+01
  2.488086e+00    9.652700e+01
  2.491202e+00    9.620641e+01
  2.494318e+00    9.628830e+01
  2.497434e+00    9.638488e+01
  2.500550e+00    9.672657e+01
  2.503666e+00    9.709480e+01
  2.506782e+00    9.730305e+01
  2.509898e+00    9.734483e+01
  2.513014e+00    9.710766e+01
  2.516130e+00    9.691671e+01
  2.519246e+00    9.700386e+01
  2.522361e+00    9.708081e+01
  2.525477e+00    9.721897e+01
  2.528593e+00    9.709847e+01
  2.531709e+00    9.717347e+01
  2.534825e+00    9.689068e+01
  2.537941e+00    9.671388e+01
  2.541057e+00    9.668655e+01
  2.544173e+00    9.702080e+01
  2.547289e+00    9.703018e+01
  2.550405e+00    9.712687e+01
  2.553521e+00    9.714699e+01
  2.556637e+00    9.721854e+01
  2.559753e+00    9.730726e+01
  2.562869e+00    9.730431e+01
  2.565985e+00    9.763523e+01
  2.569101e+00    9.775014e+01
  2.572217e+00    9.766943e+01
  2.575333e+00    9.736061e+01
  2.578449e+00    9.716358e+01
  2.581565e+00    9.709772e+01
  2.584680e+00    9.729810e+01
  2.587796e+00    9.770013e+01
  2.590912e+00    9.768851e+01
  2.594028e+00    9.745477e+01
  2.597144e+00    9.756651e+01
  2.600260e+00    9.747195e+01
  2.603376e+00    9.736105e+01
  2.606492e+00    9.729493e+01
  2.609608e+00    9.777102e+01
  2.612724e+00    9.818552e+01
  2.615840e+00    9.824289e+01
  2.618956e+00    9.807608e+01
  2.622072e+00    9.825333e+01
  2.625188e+00    9.827289e+01
  2.628304e+00    9.846462e+01
  2.631420e+00    9.838108e+01
  2.634536e+00    9.828400e+01
  2.637652e+00    9.842333e+01
  2.640768e+00    9.887329e+01
  2.643884e+00    9.902917e+01
  2.646999e+00    9.891320e+01
  2.650115e+00    9.918129e+01
  2.653231e+00    9.916050e+01
  2.656347e+00    9.906490e+01
  2.659463e+00    9.909058e+01
  2.662579e+00    9.949654e+01
  2.665695e+00    9.964661e+01
  2.668811e+00    9.967815e+01
  2.671927e+00    9.943910e+01
  2.675043e+00    9.962405e+01
  2.678159e+00    9.989120e+01
  2.681275e+00    9.998672e+01
  2.684391e+00    1.002552e+02
  2.687507e+00    1.003937e+02
  2.690623e+00    1.003511e+02
  2.693739e+00    9.997030e+01
  2.696855e+00    9.961366e+01
  2.699971e+00    1.000939e+02
  2.703087e+00    1.005098e+02
  2.706203e+00    1.008881e+02
  2.709318e+00    1.008353e+02
  2.712434e+00    1.008927e+02
  2.715550e+00    1.014214e+02
  2.718666e+00    1.019717e+02
  2.721782e+00    1.025122e+02
  2.724898e+00    1.026577e+02
  2.728014e+00    1.028617e+02
  2.731130e+00    1.030838e+02
  2.734246e+00    1.034198e+02
  2.737362e+00    1.041172e+02
  2.740478e+00    1.050721e+02
  2.743594e+00    1.062644e+02
  2.746710e+00    1.073890e+02
  2.749826e+00    1.076099e+02
  2.752942e+00    1.070047e+02
  2.756058e+00    1.057236e+02
  2.759174e+00    1.045365e+02
  2.762290e+00    1.037611e+02
  2.765406e+00    1.032482e+02
  2.768522e+00    1.029591e+02
  2.771637e+00    1.029129e+02
  2.774753e+00    1.032114e+02
  2.777869e+00    1.034502e+02
  2.780985e+00    1.037131e+02
  2.784101e+00    1.036171e+02
  2.787217e+00    1.038425e+02
  2.790333e+00    1.042421e+02
  2.793449e+00    1.047271e+02
  2.796565e+00    1.049868e+02
  2.799681e+00    1.051602e+02
  2.802797e+00    1.056122e+02
  2.805913e+00    1.057488e+02
  2.809029e+00    1.056598e+02
  2.812145e+00    1.056538e+02
  2.815261e+00    1.058532e+02
  2.818377e+00    1.059018e+02
  2.821493e+00    1.060307e+02
  2.824609e+00    1.060777e+02
  2.827725e+00    1.061075e+02
  2.830841e+00    1.063702e+02
  2.833956e+00    1.066429e+02
  2.837072e+00    1.069516e+02
  2.840188e+00    1.072238e+02
  2.843304e+00    1.076262e+02
  2.846420e+00    1.077034e+02
  2.849536e+00    1.079222e+02
  2.852652e+00    1.079473e+02
  2.855768e+00    1.080860e+02
  2.858884e+00    1.084358e+02
  2.862000e+00    1.090624e+02
  2.865116e+00    1.098304e+02
  2.868232e+00    1.104595e+02
  2.871348e+00    1.108580e+02
  2.874464e+00    1.110777e+02
  2.877580e+00    1.111799e+02
  2.880696e+00    1.114703e+02
  2.883812e+00    1.114686e+02
  2.886928e+00    1.113346e+02
  2.890044e+00    1.109253e+02
  2.893160e+00    1.108371e+02
  2.896275e+00    1.113414e+02
  2.899391e+00    1.112564e+02
  2.902507e+00    1.113834e+02
  2.905623e+00    1.115281e+02
  2.908739e+00    1.120960e+02
  2.911855e+00    1.123571e+02
  2.914971e+00    1.125219e+02
  2.918087e+00    1.127646e+02
  2.921203e+00    1.130950e+02
  2.924319e+00    1.133303e+02
  2.927435e+00    1.134367e+02
  2.930551e+00    1.135062e+02
  2.933667e+00    1.137500e+02
  2.936783e+00    1.139665e+02
  2.939899e+00    1.141636e+02
  2.943015e+00    1.143965e+02
  2.946131e+00    1.148330e+02
  2.949247e+00    1.151735e+02
  2.952363e+00    1.156796e+02
  2.955479e+00    1.163641e+02
  2.958594e+00    1.171480e+02
  2.961710e+00    1.175743e+02
  2.964826e+00    1.178130e+02
  2.967942e+00    1.181041e+02
  2.971058e+00    1.184095e+02
  2.974174e+00    1.186894e+02
  2.977290e+00    1.190405e+02
  2.980406e+00    1.193668e+02
  2.983522e+00    1.196875e+02
  2.986638e+00    1.199777e+02
  2.989754e+00    1.204136e+02
  2.992870e+00    1.209731e+02
  2.995986e+00    1.215002e+02
  2.999102e+00    1.221656e+02
  3.002218e+00    1.225458e+02
  3.005334e+00    1.230645e+02
  3.008450e+00    1.236751e+02
  3.011566e+00    1.243423e+02
  3.014682e+00    1.250800e+02
  3.017798e+00    1.255203e+02
  3.020913e+00    1.260080e+02
  3.024029e+00    1.262619e+02
  3.027145e+00    1.265991e+02
  3.030261e+00    1.273427e+02
  3.033377e+00    1.287333e+02
  3.036493e+00    1.305303e+02
  3.039609e+00    1.321848e+02
  3.042725e+00    1.333524e+02
  3.045841e+00    1.340635e+02
  3.048957e+00    1.339536e+02
  3.052073e+00    1.335727e+02
  3.055189e+00    1.331892e+02
  3.058305e+00    1.329744e+02
  3.061421e+00    1.330884e+02
  3.064537e+00    1.337455e+02
  3.067653e+00    1.349095e+02
  3.070769e+00    1.357079e+02
  3.073885e+00    1.364037e+02
  3.077001e+00    1.374825e+02
  3.080117e+00    1.385395e+02
  3.083232e+00    1.398443e+02
  3.086348e+00    1.410032e+02
  3.089464e+00    1.422986e+02
  3.092580e+00    1.433373e+02
  3.095696e+00    1.447648e+02
  3.098812e+00    1.462171e+02
  3.101928e+00    1.477466e+02
  3.105044e+00    1.495727e+02
  3.108160e+00    1.513605e+02
  3.111276e+00    1.530986e+02
  3.114392e+00    1.551743e+02
  3.117508e+00    1.575185e+02
  3.120624e+00    1.602238e+02
  3.123740e+00    1.628894e+02
  3.126856e+00    1.661962e+02
  3.129972e+00    1.700646e+02
  3.133088e+00    1.745902e+02
  3.136204e+00    1.801850e+02
  3.139320e+00    1.875917e+02
  3.142436e+00    1.983878e+02
  3.145551e+00    2.152155e+02
  3.148667e+00    2.443030e+02
  3.151783e+00    3.013591e+02
  3.154899e+00    4.210298e+02
  3.158015e+00    6.802251e+02
  3.161131e+00    1.187913e+03
  3.164247e+00    2.021870e+03
  3.167363e+00    3.062835e+03
  3.170479e+00    3.992481e+03
  3.173595e+00    4.435479e+03
  3.176711e+00    4.185335e+03
  3.179827e+00    3.399756e+03
  3.182943e+00    2.408877e+03
  3.186059e+00    1.512380e+03
  3.189175e+00    8.917016e+02
  3.192291e+00    5.377077e+02
  3.195407e+00    3.638383e+02
  3.198523e+00    2.822252e+02
  3.201639e+00    2.426241e+02
  3.204755e+00    2.215302e+02
  3.207870e+00    2.094094e+02
  3.210986e+00    2.014452e+02
  3.214102e+00    1.958220e+02
  3.217218e+00    1.916811e+02
  3.220334e+00    1.885409e+02
  3.223450e+00    1.857274e+02
  3.226566e+00    1.838500e+02
  3.229682e+00    1.823951e+02
  3.232798e+00    1.814226e+02
  3.235914e+00    1.807121e+02
  3.239030e+00    1.805904e+02
  3.242146e+00    1.809567e+02
  3.245262e+00    1.813036e+02
  3.248378e+00    1.808620e+02
  3.251494e+00    1.797804e+02
  3.254610e+00    1.785769e+02
  3.257726e+00    1.773779e+02
  3.260842e+00    1.762381e+02
  3.263958e+00    1.754942e+02
  3.267074e+00    1.753407e+02
  3.270189e+00    1.759197e+02
  3.273305e+00    1.770023e+02
  3.276421e+00    1.781916e+02
  3.279537e+00    1.793434e+02
  3.282653e+00    1.802285e+02
  3.285769e+00    1.806107e+02
  3.288885e+00    1.806066e+02
  3.292001e+00    1.802858e+02
  3.295117e+00    1.789523e+02
  3.298233e+00    1.773771e+02
  3.301349e+00    1.763895e+02
  3.304465e+00    1.762457e+02
  3.307581e+00    1.766809e+02
  3.310697e+00    1.771971e+02
  3.313813e+00    1.773554e+02
  3.316929e+00    1.777810e+02
  3.320045e+00    1.786150e+02
  3.323161e+00    1.795109e+02
  3.326277e+00    1.801436e+02
  3.329393e+00    1.808189e+02
  3.332508e+00    1.816115e+02
  3.335624e+00    1.823545e+02
  3.338740e+00    1.838210e+02
  3.341856e+00    1.853019e+02
  3.344972e+00    1.864659e+02
  3.348088e+00    1.876567e+02
  3.351204e+00    1.895902e+02
  3.354320e+00    1.915613e+02
  3.357436e+00    1.932935e+02
  3.360552e+00    1.946195e+02
  3.363668e+00    1.964071e+02
  3.366784e+00    1.979287e+02
  3.369900e+00    1.994781e+02
  3.373016e+00    2.011035e+02
  3.376132e+00    2.030405e+02
  3.379248e+00    2.054637e+02
  3.382364e+00    2.081720e+02
  3.385480e+00    2.109021e+02
  3.388596e+00    2.139143e+02
  3.391712e+00    2.174491e+02
  3.394827e+00    2.218945e+02
  3.397943e+00    2.268361e+02
  3.401059e+00    2.334031e+02
  3.404175e+00    2.425222e+02
  3.407291e+00    2.565333e+02
  3.410407e+00    2.817589e+02
  3.413523e+00    3.340714e+02
  3.416639e+00    4.542289e+02
  3.419755e+00    7.101154e+02
  3.422871e+00    1.184627e+03
  3.425987e+00    1.838309e+03
  3.429103e+00    2.481429e+03
  3.432219e+00    2.813571e+03
  3.435335e+00    2.672828e+03
  3.438451e+00    2.137798e+03
  3.441567e+00    1.514771e+03
  3.444683e+00    1.080047e+03
  3.447799e+00    1.006001e+03
  3.450915e+00    1.305522e+03
  3.454031e+00    1.927584e+03
  3.457146e+00    2.705747e+03
  3.460262e+00    3.403066e+03
  3.463378e+00    3.729293e+03
  3.466494e+00    3.484132e+03
  3.469610e+00    2.801695e+03
  3.472726e+00    1.958708e+03
  3.475842e+00    1.239640e+03
  3.478958e+00    7.577956e+02
  3.482074e+00    4.932648e+02
  3.485190e+00    3.705119e+02
  3.488306e+00    3.152092e+02
  3.491422e+00    2.892357e+02
  3.494538e+00    2.755819e+02
  3.497654e+00    2.675873e+02
  3.500770e+00    2.626789e+02
  3.503886e+00    2.595014e+02
  3.507002e+00    2.577716e+02
  3.510118e+00    2.572527e+02
  3.513234e+00    2.577245e+02
  3.516350e+00    2.587384e+02
  3.519465e+00    2.599472e+02
  3.522581e+00    2.611489e+02
  3.525697e+00    2.619153e+02
  3.528813e+00    2.627676e+02
  3.531929e+00    2.642268e+02
  3.535045e+00    2.666577e+02
  3.538161e+00    2.698867e+02
  3.541277e+00    2.740782e+02
  3.544393e+00    2.790244e+02
  3.547509e+00    2.846191e+02
  3.550625e+00    2.909176e+02
  3.553741e+00    2.979675e+02
  3.556857e+00    3.067013e+02
  3.559973e+00    3.177742e+02
  3.563089e+00    3.321875e+02
  3.566205e+00    3.507430e+02
  3.569321e+00    3.726654e+02
  3.572437e+00    3.966748e+02
  3.575553e+00    4.222285e+02
  3.578669e+00    4.501112e+02
  3.581784e+00    4.845746e+02
  3.584900e+00    5.330271e+02
  3.588016e+00    6.113088e+02
  3.591132e+00    7.546556e+02
  3.594248e+00    1.050206e+03
  3.597364e+00    1.680765e+03
  3.600480e+00    3.002792e+03
  3.603596e+00    5.417208e+03
  3.606712e+00    9.051708e+03
  3.609828e+00    1.319606e+04
  3.612944e+00    1.644940e+04
  3.616060e+00    1.750564e+04
  3.619176e+00    1.608323e+04
  3.622292e+00    1.289013e+04
  3.625408e+00    9.041423e+03
  3.628524e+00    5.625034e+03
  3.631640e+00    3.194938e+03
  3.634756e+00    1.769128e+03
  3.637872e+00    1.056165e+03
  3.640988e+00    7.182488e+02
  3.644103e+00    5.541934e+02
  3.647219e+00    4.652693e+02
  3.650335e+00    4.119864e+02
  3.653451e+00    3.764179e+02
  3.656567e+00    3.511056e+02
  3.659683e+00    3.314555e+02
  3.662799e+00    3.157358e+02
  3.665915e+00    3.027892e+02
  3.669031e+00    2.916552e+02
  3.672147e+00    2.819123e+02
  3.675263e+00    2.731232e+02
  3.678379e+00    2.647964e+02
  3.681495e+00    2.571112e+02
  3.684611e+00    2.502640e+02
  3.687727e+00    2.437327e+02
  3.690843e+00    2.378634e+02
  3.693959e+00    2.325466e+02
  3.697075e+00    2.275460e+02
  3.700191e+00    2.225309e+02
  3.703307e+00    2.173819e+02
  3.706422e+00    2.129693e+02
  3.709538e+00    2.091702e+02
  3.712654e+00    2.055863e+02
  3.715770e+00    2.022395e+02
  3.718886e+00    1.991540e+02
  3.722002e+00    1.966552e+02
  3.725118e+00    1.949885e+02
  3.728234e+00    1.936260e+02
  3.731350e+00    1.929842e+02
  3.734466e+00    1.933256e+02
  3.737582e+00    1.953387e+02
  3.740698e+00    1.986777e+02
  3.743814e+00    2.027512e+02
  3.746930e+00    2.054916e+02
  3.750046e+00    2.054527e+02
  3.753162e+00    2.012714e+02
  3.756278e+00    1.944400e+02
  3.759394e+00    1.870218e+02
  3.762510e+00    1.808505e+02
  3.765626e+00    1.760818e+02
  3.768741e+00    1.727952e+02
  3.771857e+00    1.706526e+02
  3.774973e+00    1.691266e+02
  3.778089e+00    1.676069e+02
  3.781205e+00    1.659631e+02
  3.784321e+00    1.649071e+02
  3.787437e+00    1.642279e+02
  3.790553e+00    1.636586e+02
  3.793669e+00    1.634295e+02
  3.796785e+00    1.638043e+02
  3.799901e+00    1.649368e+02
  3.803017e+00    1.660505e+02
  3.806133e+00    1.670061e+02
  3.809249e+00    1.681593e+02
  3.812365e+00    1.691874e+02
  3.815481e+00    1.695796e+02
  3.818597e+00    1.694341e+02
  3.821713e+00    1.688544e+02
  3.824829e+00    1.677532e+02
  3.827945e+00    1.659407e+02
  3.831060e+00    1.637174e+02
  3.834176e+00    1.616319e+02
  3.837292e+00    1.601013e+02
  3.840408e+00    1.588522e+02
  3.843524e+00    1.580498e+02
  3.846640e+00    1.580474e+02
  3.849756e+00    1.592647e+02
  3.852872e+00    1.607374e+02
  3.855988e+00    1.615587e+02
  3.859104e+00    1.612369e+02
  3.862220e+00    1.598299e+02
  3.865336e+00    1.576245e+02
  3.868452e+00    1.552820e+02
  3.871568e+00    1.535115e+02
  3.874684e+00    1.526626e+02
  3.877800e+00    1.520861e+02
  3.880916e+00    1.518721e+02
  3.884032e+00    1.518692e+02
  3.887148e+00    1.517463e+02
  3.890264e+00    1.514239e+02
  3.893379e+00    1.507001e+02
  3.896495e+00    1.499563e+02
  3.899611e+00    1.492714e+02
  3.902727e+00    1.486284e+02
  3.905843e+00    1.481423e+02
  3.908959e+00    1.482121e+02
  3.912075e+00    1.486410e+02
  3.915191e+00    1.490168e+02
  3.918307e+00    1.495095e+02
  3.921423e+00    1.502377e+02
  3.924539e+00    1.513979e+02
  3.927655e+00    1.531290e+02
  3.930771e+00    1.552786e+02
  3.933887e+00    1.586331e+02
  3.937003e+00    1.636906e+02
  3.940119e+00    1.730405e+02
  3.943235e+00    1.918521e+02
  3.946351e+00    2.328728e+02
  3.949467e+00    3.250831e+02
  3.952583e+00    5.051801e+02
  3.955698e+00    8.082186e+02
  3.958814e+00    1.186252e+03
  3.961930e+00    1.546677e+03
  3.965046e+00    1.726340e+03
  3.968162e+00    1.676986e+03
  3.971278e+00    1.457950e+03
  3.974394e+00    1.144317e+03
  3.977510e+00    8.204478e+02
  3.980626e+00    5.577283e+02
  3.983742e+00    3.703625e+02
  3.986858e+00    2.613658e+02
  3.989974e+00    2.034563e+02
  3.993090e+00    1.757735e+02
  3.996206e+00    1.620327e+02
  3.999322e+00    1.547361e+02
  4.002438e+00    1.502938e+02
  4.005554e+00    1.469781e+02
  4.008670e+00    1.442250e+02
  4.011786e+00    1.420116e+02
  4.014902e+00    1.405633e+02
  4.018017e+00    1.392487e+02
  4.021133e+00    1.379163e+02
  4.024249e+00    1.365741e+02
  4.027365e+00    1.354286e+02
  4.030481e+00    1.344594e+02
  4.033597e+00    1.332447e+02
  4.036713e+00    1.323339e+02
  4.039829e+00    1.316214e+02
  4.042945e+00    1.308996e+02
  4.046061e+00    1.301565e+02
  4.049177e+00    1.296537e+02
  4.052293e+00    1.293248e+02
  4.055409e+00    1.291116e+02
  4.058525e+00    1.291564e+02
  4.061641e+00    1.291882e+02
  4.064757e+00    1.292252e+02
  4.067873e+00    1.288229e+02
  4.070989e+00    1.277812e+02
  4.074105e+00    1.264512e+02
  4.077221e+00    1.247991e+02
  4.080336e+00    1.233725e+02
  4.083452e+00    1.222106e+02
  4.086568e+00    1.214660e+02
  4.089684e+00    1.208027e+02
  4.092800e+00    1.204802e+02
  4.095916e+00    1.206129e+02
  4.099032e+00    1.207278e+02
  4.102148e+00    1.203690e+02
  4.105264e+00    1.196841e+02
  4.108380e+00    1.191133e+02
  4.111496e+00    1.184678e+02
  4.114612e+00    1.178047e+02
  4.117728e+00    1.174904e+02
  4.120844e+00    1.172108e+02
  4.123960e+00    1.167846e+02
  4.127076e+00    1.165740e+02
  4.130192e+00    1.164896e+02
  4.133308e+00    1.161959e+02
  4.136424e+00    1.160874e+02
  4.139540e+00    1.154645e+02
  4.142655e+00    1.150921e+02
  4.145771e+00    1.149628e+02
  4.148887e+00    1.150290e+02
  4.152003e+00    1.148656e+02
  4.155119e+00    1.148864e+02
  4.158235e+00    1.152755e+02
  4.161351e+00    1.158311e+02
  4.164467e+00    1.161709e+02
  4.167583e+00    1.163184e+02
  4.170699e+00    1.160396e+02
  4.173815e+00    1.153680e+02
  4.176931e+00    1.144545e+02
  4.180047e+00    1.135121e+02
  4.183163e+00    1.131103e+02
  4.186279e+00    1.129708e+02
  4.189395e+00    1.129289e+02
  4.192511e+00    1.126174e+02
  4.195627e+00    1.123565e+02
  4.198743e+00    1.117681e+02
  4.201858e+00    1.113355e+02
  4.204974e+00    1.112032e+02
  4.208090e+00    1.111665e+02
  4.211206e+00    1.110644e+02
  4.214322e+00    1.107332e+02
  4.217438e+00    1.104456e+02
  4.220554e+00    1.102035e+02
  4.223670e+00    1.099656e+02
  4.226786e+00    1.095163e+02
  4.229902e+00    1.092210e+02
  4.233018e+00    1.093235e+02
  4.236134e+00    1.093485e+02
  4.239250e+00    1.093893e+02
  4.242366e+00    1.092023e+02
  4.245482e+00    1.093147e+02
  4.248598e+00    1.091065e+02
  4.251714e+00    1.089921e+02
  4.254830e+00    1.089340e+02
  4.257946e+00    1.087405e+02
  4.261062e+00    1.084952e+02
  4.264177e+00    1.085332e+02
  4.267293e+00    1.085709e+02
  4.270409e+00    1.085063e+02
  4.273525e+00    1.084732e+02
  4.276641e+00    1.080429e+02
  4.279757e+00    1.079845e+02
  4.282873e+00    1.086676e+02
  4.285989e+00    1.089413e+02
  4.289105e+00    1.089633e+02
  4.292221e+00    1.087387e+02
  4.295337e+00    1.082857e+02
  4.298453e+00    1.077371e+02
  4.301569e+00    1.074172e+02
  4.304685e+00    1.073194e+02
  4.307801e+00    1.073479e+02
  4.310917e+00    1.070355e+02
  4.314033e+00    1.070126e+02
  4.317149e+00    1.069002e+02
  4.320265e+00    1.068405e+02
  4.323381e+00    1.067119e+02
  4.326496e+00    1.065901e+02
  4.329612e+00    1.065499e+02
  4.332728e+00    1.065189e+02
  4.335844e+00    1.066504e+02
  4.338960e+00    1.068069e+02
  4.342076e+00    1.067869e+02
  4.345192e+00    1.069083e+02
  4.348308e+00    1.073722e+02
  4.351424e+00    1.079423e+02
  4.354540e+00    1.081782e+02
  4.357656e+00    1.084644e+02
  4.360772e+00    1.087588e+02
  4.363888e+00    1.087162e+02
  4.367004e+00    1.083412e+02
  4.370120e+00    1.077358e+02
  4.373236e+00    1.073685e+02
  4.376352e+00    1.066998e+02
  4.379468e+00    1.064407e+02
  4.382584e+00    1.063509e+02
  4.385700e+00    1.067132e+02
  4.388815e+00    1.069580e+02
  4.391931e+00    1.071694e+02
  4.395047e+00    1.071154e+02
  4.398163e+00    1.071922e+02
  4.401279e+00    1.073420e+02
  4.404395e+00    1.076912e+02
  4.407511e+00    1.078405e+02
  4.410627e+00    1.080422e+02
  4.413743e+00    1.083673e+02
  4.416859e+00    1.084166e+02
  4.419975e+00    1.081209e+02
  4.423091e+00    1.081188e+02
  4.426207e+00    1.077594e+02
  4.429323e+00    1.074606e+02
  4.432439e+00    1.072197e+02
  4.435555e+00    1.066860e+02
  4.438671e+00    1.063692e+02
  4.441787e+00    1.064448e+02
  4.444903e+00    1.061703e+02
  4.448019e+00    1.057843e+02
  4.451134e+00    1.057062e+02
  4.454250e+00    1.057333e+02
  4.457366e+00    1.056445e+02
  4.460482e+00    1.056661e+02
  4.463598e+00    1.056640e+02
  4.466714e+00    1.055429e+02
  4.469830e+00    1.054903e+02
  4.472946e+00    1.053048e+02
  4.476062e+00    1.050782e+02
  4.479178e+00    1.054239e+02
  4.482294e+00    1.056893e+02
  4.485410e+00    1.057703e+02
  4.488526e+00    1.055336e+02
  4.491642e+00    1.055798e+02
  4.494758e+00    1.057469e+02
  4.497874e+00    1.058664e+02
  4.500990e+00    1.060339e+02
  4.504106e+00    1.059570e+02
  4.507222e+00    1.060003e+02
  4.510338e+00    1.061560e+02
  4.513453e+00    1.064060e+02
  4.516569e+00    1.066174e+02
  4.519685e+00    1.068561e+02
  4.522801e+00    1.070475e+02
  4.525917e+00    1.073389e+02
  4.529033e+00    1.075949e+02
  4.532149e+00    1.082217e+02
  4.535265e+00    1.088699e+02
  4.538381e+00    1.096342e+02
  4.541497e+00    1.102897e+02
  4.544613e+00    1.110907e+02
  4.547729e+00    1.119191e+02
  4.550845e+00    1.125569e+02
  4.553961e+00    1.128999e+02
  4.557077e+00    1.140047e+02
  4.560193e+00    1.162645e+02
  4.563309e+00    1.202558e+02
  4.566425e+00    1.278367e+02
  4.569541e+00    1.420895e+02
  4.572657e+00    1.690381e+02
  4.575772e+00    2.096625e+02
  4.578888e+00    2.673515e+02
  4.582004e+00    3.228004e+02
  4.585120e+00    3.614384e+02
  4.588236e+00    3.674286e+02
  4.591352e+00    3.358345e+02
  4.594468e+00    2.831797e+02
  4.597584e+00    2.248351e+02
  4.600700e+00    1.798769e+02
  4.603816e+00    1.504892e+02
  4.606932e+00    1.347319e+02
  4.610048e+00    1.272062e+02
  4.613164e+00    1.234828e+02
  4.616280e+00    1.215528e+02
  4.619396e+00    1.206925e+02
  4.622512e+00    1.203701e+02
  4.625628e+00    1.207260e+02
  4.628744e+00    1.215766e+02
  4.631860e+00    1.225074e+02
  4.634976e+00    1.234525e+02
  4.638091e+00    1.242461e+02
  4.641207e+00    1.252976e+02
  4.644323e+00    1.264342e+02
  4.647439e+00    1.277718e+02
  4.650555e+00    1.294472e+02
  4.653671e+00    1.317278e+02
  4.656787e+00    1.345076e+02
  4.659903e+00    1.378539e+02
  4.663019e+00    1.427050e+02
  4.666135e+00    1.495113e+02
  4.669251e+00    1.599508e+02
  4.672367e+00    1.775310e+02
  4.675483e+00    2.104045e+02
  4.678599e+00    2.756847e+02
  4.681715e+00    4.074485e+02
  4.684831e+00    6.452192e+02
  4.687947e+00    1.005373e+03
  4.691063e+00    1.433216e+03
  4.694179e+00    1.824131e+03
  4.697295e+00    2.047426e+03
  4.700410e+00    2.050458e+03
  4.703526e+00    1.838610e+03
  4.706642e+00    1.487340e+03
  4.709758e+00    1.100277e+03
  4.712874e+00    7.424176e+02
  4.715990e+00    4.817852e+02
  4.719106e+00    3.133330e+02
  4.722222e+00    2.249419e+02
  4.725338e+00    1.809234e+02
  4.728454e+00    1.596823e+02
  4.731570e+00    1.476584e+02
  4.734686e+00    1.406425e+02
  4.737802e+00    1.358229e+02
  4.740918e+00    1.323183e+02
  4.744034e+00    1.297421e+02
  4.747150e+00    1.275894e+02
  4.750266e+00    1.257678e+02
  4.753382e+00    1.241218e+02
  4.756498e+00    1.226187e+02
  4.759614e+00    1.213955e+02
  4.762729e+00    1.204158e+02
  4.765845e+00    1.194213e+02
  4.768961e+00    1.185327e+02
  4.772077e+00    1.178371e+02
  4.775193e+00    1.170791e+02
  4.778309e+00    1.160992e+02
  4.781425e+00    1.151836e+02
  4.784541e+00    1.146238e+02
  4.787657e+00    1.140211e+02
  4.790773e+00    1.134586e+02
  4.793889e+00    1.128164e+02
  4.797005e+00    1.121097e+02
  4.800121e+00    1.115206e+02
  4.803237e+00    1.112293e+02
  4.806353e+00    1.110722e+02
  4.809469e+00    1.107446e+02
  4.812585e+00    1.101974e+02
  4.815701e+00    1.097692e+02
  4.818817e+00    1.096584e+02
  4.821933e+00    1.095923e+02
  4.825048e+00    1.092822e+02
  4.828164e+00    1.091159e+02
  4.831280e+00    1.088524e+02
  4.834396e+00    1.084731e+02
  4.837512e+00    1.082359e+02
  4.840628e+00    1.080073e+02
  4.843744e+00    1.079448e+02
  4.846860e+00    1.078196e+02
  4.849976e+00    1.076719e+02
  4.853092e+00    1.073671e+02
  4.856208e+00    1.073784e+02
  4.859324e+00    1.076701e+02
  4.862440e+00    1.076072e+02
  4.865556e+00    1.073812e+02
  4.868672e+00    1.069523e+02
  4.871788e+00    1.066026e+02
  4.874904e+00    1.067756e+02
  4.878020e+00    1.068567e+02
  4.881136e+00    1.066488e+02
  4.884252e+00    1.066254e+02
  4.887367e+00    1.068590e+02
  4.890483e+00    1.069035e+02
  4.893599e+00    1.068515e+02
  4.896715e+00    1.068599e+02
  4.899831e+00    1.069051e+02
  4.902947e+00    1.067599e+02
  4.906063e+00    1.066473e+02
  4.909179e+00    1.063201e+02
  4.912295e+00    1.061022e+02
  4.915411e+00    1.057630e+02
  4.918527e+00    1.057628e+02
  4.921643e+00    1.059072e+02
  4.924759e+00    1.059198e+02
  4.927875e+00    1.059843e+02
  4.930991e+00    1.061726e+02
  4.934107e+00    1.062315e+02
  4.937223e+00    1.063318e+02
  4.940339e+00    1.062697e+02
  4.943455e+00    1.061919e+02
  4.946571e+00    1.061584e+02
  4.949686e+00    1.063043e+02
  4.952802e+00    1.062668e+02
  4.955918e+00    1.060016e+02
  4.959034e+00    1.060201e+02
  4.962150e+00    1.059676e+02
  4.965266e+00    1.058354e+02
  4.968382e+00    1.056008e+02
  4.971498e+00    1.057195e+02
  4.974614e+00    1.059679e+02
  4.977730e+00    1.062053e+02
  4.980846e+00    1.061632e+02
  4.983962e+00    1.060997e+02
  4.987078e+00    1.059933e+02
  4.990194e+00    1.059059e+02
  4.993310e+00    1.059366e+02
  4.996426e+00    1.060457e+02
  4.999542e+00    1.061016e+02
  5.002658e+00    1.061163e+02
  5.005774e+00    1.060134e+02
  5.008890e+00    1.059860e+02
  5.012005e+00    1.057615e+02
  5.015121e+00    1.058439e+02
  5.018237e+00    1.060120e+02
  5.021353e+00    1.062320e+02
  5.024469e+00    1.062892e+02
  5.027585e+00    1.062197e+02
  5.030701e+00    1.064449e+02
  5.033817e+00    1.065840e+02
  5.036933e+00    1.068402e+02
  5.040049e+00    1.070998e+02
  5.043165e+00    1.077718e+02
  5.046281e+00    1.086289e+02
  5.049397e+00    1.094065e+02
  5.052513e+00    1.101915e+02
  5.055629e+00    1.107345e+02
  5.058745e+00    1.110884e+02
  5.061861e+00    1.110610e+02
  5.064977e+00    1.109250e+02
  5.068093e+00    1.107610e+02
  5.071209e+00    1.104355e+02
  5.074324e+00    1.100605e+02
  5.077440e+00    1.092953e+02
  5.080556e+00    1.084073e+02
  5.083672e+00    1.076716e+02
  5.086788e+00    1.072797e+02
  5.089904e+00    1.072844e+02
  5.093020e+00    1.074811e+02
  5.096136e+00    1.075583e+02
  5.099252e+00    1.074528e+02
  5.102368e+00    1.076215e+02
  5.105484e+00    1.079045e+02
  5.108600e+00    1.077517e+02
  5.111716e+00    1.077738e+02
  5.114832e+00    1.077996e+02
  5.117948e+00    1.078688e+02
  5.121064e+00    1.078883e+02
  5.124180e+00    1.079768e+02
  5.127296e+00    1.078480e+02
  5.130412e+00    1.080343e+02
  5.133528e+00    1.080301e+02
  5.136643e+00    1.079911e+02
  5.139759e+00    1.082543e+02
  5.142875e+00    1.084954e+02
  5.145991e+00    1.086324e+02
  5.149107e+00    1.085992e+02
  5.152223e+00    1.089416e+02
  5.155339e+00    1.091968e+02
  5.158455e+00    1.092659e+02
  5.161571e+00    1.089930e+02
  5.164687e+00    1.090119e+02
  5.167803e+00    1.090006e+02
  5.170919e+00    1.088846e+02
  5.174035e+00    1.090275e+02
  5.177151e+00    1.096334e+02
  5.180267e+00    1.100561e+02
  5.183383e+00    1.102366e+02
  5.186499e+00    1.103223e+02
  5.189615e+00    1.105722e+02
  5.192731e+00    1.109929e+02
  5.195847e+00    1.112410e+02
  5.198962e+00    1.114688e+02
  5.202078e+00    1.113835e+02
  5.205194e+00    1.111571e+02
  5.208310e+00    1.113195e+02
  5.211426e+00    1.115915e+02
  5.214542e+00    1.119629e+02
  5.217658e+00    1.123081e+02
  5.220774e+00    1.126916e+02
  5.223890e+00    1.128969e+02
  5.227006e+00    1.129685e+02
  5.230122e+00    1.132134e+02
  5.233238e+00    1.131758e+02
  5.236354e+00    1.130770e+02
  5.239470e+00    1.130655e+02
  5.242586e+00    1.130750e+02
  5.245702e+00    1.131970e+02
  5.248818e+00    1.133186e+02
  5.251934e+00    1.135586e+02
  5.255050e+00    1.135774e+02
  5.258166e+00    1.137338e+02
  5.261281e+00    1.137396e+02
  5.264397e+00    1.139538e+02
  5.267513e+00    1.142231e+02
  5.270629e+00    1.144677e+02
  5.273745e+00    1.147570e+02
  5.276861e+00    1.150199e+02
  5.279977e+00    1.153670e+02
  5.283093e+00    1.155473e+02
  5.286209e+00    1.156776e+02
  5.289325e+00    1.161497e+02
  5.292441e+00    1.167054e+02
  5.295557e+00    1.172505e+02
  5.298673e+00    1.175402e+02
  5.301789e+00    1.178274e+02
  5.304905e+00    1.178618e+02
  5.308021e+00    1.180735e+02
  5.311137e+00    1.182303e+02
  5.314253e+00    1.184300e+02
  5.317369e+00    1.186227e+02
  5.320485e+00    1.189303e+02
  5.323600e+00    1.192898e+02
  5.326716e+00    1.196936e+02
  5.329832e+00    1.200177e+02
  5.332948e+00    1.202576e+02
  5.336064e+00    1.206196e+02
  5.339180e+00    1.208453e+02
  5.342296e+00    1.213543e+02
  5.345412e+00    1.219518e+02
  5.348528e+00    1.221869e+02
  5.351644e+00    1.223468e+02
  5.354760e+00    1.227311e+02
  5.357876e+00    1.233178e+02
  5.360992e+00    1.241853e+02
  5.364108e+00    1.253039e+02
  5.367224e+00    1.261044e+02
  5.370340e+00    1.271208e+02
  5.373456e+00    1.281275e+02
  5.376572e+00    1.292193e+02
  5.379688e+00    1.300909e+02
  5.382804e+00    1.308577e+02
  5.385919e+00    1.313600e+02
  5.389035e+00    1.315595e+02
  5.392151e+00    1.315204e+02
  5.395267e+00    1.316508e+02
  5.398383e+00    1.320952e+02
  5.401499e+00    1.327330e+02
  5.404615e+00    1.334726e+02
  5.407731e+00    1.345138e+02
  5.410847e+00    1.355908e+02
  5.413963e+00    1.362812e+02
  5.417079e+00    1.370884e+02
  5.420195e+00    1.381988e+02
  5.423311e+00    1.394429e+02
  5.426427e+00    1.407934e+02
  5.429543e+00    1.422684e+02
  5.432659e+00    1.437710e+02
  5.435775e+00    1.453720e+02
  5.438891e+00    1.471657e+02
  5.442007e+00    1.493803e+02
  5.445123e+00    1.516261e+02
  5.448238e+00    1.544177e+02
  5.451354e+00    1.576506e+02
  5.454470e+00    1.616798e+02
  5.457586e+00    1.661297e+02
  5.460702e+00    1.716083e+02
  5.463818e+00    1.785896e+02
  5.466934e+00    1.885979e+02
  5.470050e+00    2.042672e+02
  5.473166e+00    2.312702e+02
  5.476282e+00    2.804650e+02
  5.479398e+00    3.743366e+02
  5.482514e+00    5.414823e+02
  5.485630e+00    8.163192e+02
  5.488746e+00    1.186899e+03
  5.491862e+00    1.609151e+03
  5.494978e+00    1.941774e+03
  5.498094e+00    2.110651e+03
  5.501210e+00    2.073860e+03
  5.504326e+00    1.880815e+03
  5.507442e+00    1.614266e+03
  5.510557e+00    1.300315e+03
  5.513673e+00    9.888785e+02
  5.516789e+00    6.977756e+02
  5.519905e+00    4.812565e+02
  5.523021e+00    3.386892e+02
  5.526137e+00    2.629544e+02
  5.529253e+00    2.224696e+02
  5.532369e+00    2.014300e+02
  5.535485e+00    1.885983e+02
  5.538601e+00    1.806206e+02
  5.541717e+00    1.745961e+02
  5.544833e+00    1.701777e+02
  5.547949e+00    1.662057e+02
  5.551065e+00    1.633857e+02
  5.554181e+00    1.614712e+02
  5.557297e+00    1.599930e+02
  5.560413e+00    1.589554e+02
  5.563529e+00    1.582833e+02
  5.566645e+00    1.576600e+02
  5.569761e+00    1.573979e+02
  5.572876e+00    1.575583e+02
  5.575992e+00    1.580916e+02
  5.579108e+00    1.596001e+02
  5.582224e+00    1.628716e+02
  5.585340e+00    1.709083e+02
  5.588456e+00    1.895414e+02
  5.591572e+00    2.285484e+02
  5.594688e+00    2.968683e+02
  5.597804e+00    3.991165e+02
  5.600920e+00    5.167805e+02
  5.604036e+00    6.329494e+02
  5.607152e+00    6.912010e+02
  5.610268e+00    6.730392e+02
  5.613384e+00    5.854550e+02
  5.616500e+00    4.525758e+02
  5.619616e+00    3.290004e+02
  5.622732e+00    2.403958e+02
  5.625848e+00    1.908281e+02
  5.628964e+00    1.673827e+02
  5.632080e+00    1.567758e+02
  5.635195e+00    1.516732e+02
  5.638311e+00    1.486464e+02
  5.641427e+00    1.466806e+02
  5.644543e+00    1.454430e+02
  5.647659e+00    1.443484e+02
  5.650775e+00    1.432480e+02
  5.653891e+00    1.425056e+02
  5.657007e+00    1.417454e+02
  5.660123e+00    1.411847e+02
  5.663239e+00    1.408804e+02
  5.666355e+00    1.406246e+02
  5.669471e+00    1.401851e+02
  5.672587e+00    1.397168e+02
  5.675703e+00    1.393088e+02
  5.678819e+00    1.393000e+02
  5.681935e+00    1.391541e+02
  5.685051e+00    1.389178e+02
  5.688167e+00    1.384874e+02
  5.691283e+00    1.379504e+02
  5.694399e+00    1.373913e+02
  5.697514e+00    1.371036e+02
  5.700630e+00    1.367902e+02
  5.703746e+00    1.366155e+02
  5.706862e+00    1.365531e+02
  5.709978e+00    1.364200e+02
  5.713094e+00    1.359478e+02
  5.716210e+00    1.355862e+02
  5.719326e+00    1.353355e+02
  5.722442e+00    1.352540e+02
  5.725558e+00    1.353219e+02
  5.728674e+00    1.352725e+02
  5.731790e+00    1.350761e+02
  5.734906e+00    1.350798e+02
  5.738022e+00    1.349292e+02
  5.741138e+00    1.347164e+02
  5.744254e+00    1.346680e+02
  5.747370e+00    1.347339e+02
  5.750486e+00    1.346640e+02
  5.753602e+00    1.345862e+02
  5.756718e+00    1.347069e+02
  5.759833e+00    1.346897e+02
  5.762949e+00    1.346240e+02
  5.766065e+00    1.347298e+02
  5.769181e+00    1.349325e+02
  5.772297e+00    1.349585e+02
  5.775413e+00    1.349279e+02
  5.778529e+00    1.346421e+02
  5.781645e+00    1.344731e+02
  5.784761e+00    1.344592e+02
  5.787877e+00    1.345331e+02
  5.790993e+00    1.344629e+02
  5.794109e+00    1.344421e+02
  5.797225e+00    1.341816e+02
  5.800341e+00    1.343170e+02
  5.803457e+00    1.346103e+02
  5.806573e+00    1.344789e+02
  5.809689e+00    1.343643e+02
  5.812805e+00    1.344674e+02
  5.815921e+00    1.345950e+02
  5.819037e+00    1.344466e+02
  5.822152e+00    1.342845e+02
  5.825268e+00    1.342360e+02
  5.828384e+00    1.345028e+02
  5.831500e+00    1.348100e+02
  5.834616e+00    1.350714e+02
  5.837732e+00    1.349582e+02
  5.840848e+00    1.350261e+02
  5.843964e+00    1.350107e+02
  5.847080e+00    1.349882e+02
  5.850196e+00    1.350237e+02
  5.853312e+00    1.351229e+02
  5.856428e+00    1.351789e+02
  5.859544e+00    1.352469e+02
  5.862660e+00    1.354260e+02
  5.865776e+00    1.357451e+02
  5.868892e+00    1.359756e+02
  5.872008e+00    1.360998e+02
  5.875124e+00    1.362948e+02
  5.878240e+00    1.363764e+02
  5.881356e+00    1.364034e+02
  5.884471e+00    1.366242e+02
  5.887587e+00    1.370028e+02
  5.890703e+00    1.371697e+02
  5.893819e+00    1.372212e+02
  5.896935e+00    1.374319e+02
  5.900051e+00    1.375156e+02
  5.903167e+00    1.375425e+02
  5.906283e+00    1.377542e+02
  5.909399e+00    1.380379e+02
  5.912515e+00    1.382723e+02
  5.915631e+00    1.382494e+02
  5.918747e+00    1.384686e+02
  5.921863e+00    1.386566e+02
  5.924979e+00    1.388503e+02
  5.928095e+00    1.388797e+02
  5.931211e+00    1.391524e+02
  5.934327e+00    1.397952e+02
  5.937443e+00    1.403371e+02
  5.940559e+00    1.405715e+02
  5.943675e+00    1.408437e+02
  5.946790e+00    1.410667e+02
  5.949906e+00    1.413756e+02
  5.953022e+00    1.420138e+02
  5.956138e+00    1.426203e+02
  5.959254e+00    1.429899e+02
  5.962370e+00    1.434433e+02
  5.965486e+00    1.438232e+02
  5.968602e+00    1.442039e+02
  5.971718e+00    1.445896e+02
  5.974834e+00    1.449539e+02
  5.977950e+00    1.453783e+02
  5.981066e+00    1.456284e+02
  5.984182e+00    1.460959e+02
  5.987298e+00    1.466938e+02
  5.990414e+00    1.472384e+02
  5.993530e+00    1.478272e+02
  5.996646e+00    1.486453e+02
  5.999762e+00    1.493644e+02
  6.002878e+00    1.501956e+02
  6.005994e+00    1.510882e+02
  6.009109e+00    1.521810e+02
  6.012225e+00    1.530779e+02
  6.015341e+00    1.540662e+02
  6.018457e+00    1.552461e+02
  6.021573e+00    1.563492e+02
  6.024689e+00    1.576032e+02
  6.027805e+00    1.589097e+02
  6.030921e+00    1.606647e+02
  6.034037e+00    1.624085e+02
  6.037153e+00    1.644000e+02
  6.040269e+00    1.666525e+02
  6.043385e+00    1.692770e+02
  6.046501e+00    1.723857e+02
  6.049617e+00    1.759803e+02
  6.052733e+00    1.805991e+02
  6.055849e+00    1.870438e+02
  6.058965e+00    1.966174e+02
  6.062081e+00    2.115691e+02
  6.065197e+00    2.387335e+02
  6.068313e+00    2.905586e+02
  6.071428e+00    3.904533e+02
  6.074544e+00    5.647087e+02
  6.077660e+00    8.335108e+02
  6.080776e+00    1.166351e+03
  6.083892e+00    1.498833e+03
  6.087008e+00    1.760036e+03
  6.090124e+00    1.880804e+03
  6.093240e+00    1.849947e+03
  6.096356e+00    1.682087e+03
  6.099472e+00    1.422693e+03
  6.102588e+00    1.123990e+03
  6.105704e+00    8.304493e+02
  6.108820e+00    5.839177e+02
  6.111936e+00    4.041383e+02
  6.115052e+00    2.954201e+02
  6.118168e+00    2.360223e+02
  6.121284e+00    2.066306e+02
  6.124400e+00    1.909584e+02
  6.127516e+00    1.820403e+02
  6.130632e+00    1.765089e+02
  6.133747e+00    1.727694e+02
  6.136863e+00    1.699831e+02
  6.139979e+00    1.675760e+02
  6.143095e+00    1.654300e+02
  6.146211e+00    1.635852e+02
  6.149327e+00    1.622167e+02
  6.152443e+00    1.611342e+02
  6.155559e+00    1.600902e+02
  6.158675e+00    1.590487e+02
  6.161791e+00    1.580781e+02
  6.164907e+00    1.571590e+02
  6.168023e+00    1.562504e+02
  6.171139e+00    1.560823e+02
  6.174255e+00    1.556878e+02
  6.177371e+00    1.554680e+02
  6.180487e+00    1.555434e+02
  6.183603e+00    1.563024e+02
  6.186719e+00    1.569295e+02
  6.189835e+00    1.575457e+02
  6.192951e+00    1.575135e+02
  6.196066e+00    1.572608e+02
  6.199182e+00    1.568212e+02
  6.202298e+00    1.565517e+02
  6.205414e+00    1.564126e+02
  6.208530e+00    1.564804e+02
  6.211646e+00    1.561151e+02
  6.214762e+00    1.554927e+02
  6.217878e+00    1.545429e+02
  6.220994e+00    1.536411e+02
  6.224110e+00    1.530681e+02
  6.227226e+00    1.527732e+02
  6.230342e+00    1.526319e+02
  6.233458e+00    1.526663e+02
  6.236574e+00    1.526397e+02
  6.239690e+00    1.526478e+02
  6.242806e+00    1.526485e+02
  6.245922e+00    1.525576e+02
  6.249038e+00    1.522681e+02
  6.252154e+00    1.519427e+02
  6.255270e+00    1.518384e+02
  6.258385e+00    1.517383e+02
  6.261501e+00    1.515807e+02
  6.264617e+00    1.514937e+02
  6.267733e+00    1.515034e+02
  6.270849e+00    1.516444e+02
  6.273965e+00    1.517490e+02
  6.277081e+00    1.517352e+02
  6.280197e+00    1.518417e+02
  6.283313e+00    1.518083e+02
  6.286429e+00    1.519588e+02
  6.289545e+00    1.522789e+02
  6.292661e+00    1.524381e+02
  6.295777e+00    1.525279e+02
  6.298893e+00    1.526663e+02
  6.302009e+00    1.531010e+02
  6.305125e+00    1.538192e+02
  6.308241e+00    1.544430e+02
  6.311357e+00    1.549455e+02
  6.314473e+00    1.556127e+02
  6.317589e+00    1.568189e+02
  6.320704e+00    1.590333e+02
  6.323820e+00    1.623775e+02
  6.326936e+00    1.680580e+02
  6.330052e+00    1.779805e+02
  6.333168e+00    1.953414e+02
  6.336284e+00    2.233172e+02
  6.339400e+00    2.628918e+02
  6.342516e+00    3.088815e+02
  6.345632e+00    3.511427e+02
  6.348748e+00    3.756762e+02
  6.351864e+00    3.786222e+02
  6.354980e+00    3.640374e+02
  6.358096e+00    3.404584e+02
  6.361212e+00    3.129100e+02
  6.364328e+00    2.841773e+02
  6.367444e+00    2.545602e+02
  6.370560e+00    2.257073e+02
  6.373676e+00    2.021949e+02
  6.376792e+00    1.852820e+02
  6.379908e+00    1.748725e+02
  6.383023e+00    1.686126e+02
  6.386139e+00    1.653167e+02
  6.389255e+00    1.635479e+02
  6.392371e+00    1.625898e+02
  6.395487e+00    1.619947e+02
  6.398603e+00    1.619766e+02
  6.401719e+00    1.620993e+02
  6.404835e+00    1.620578e+02
  6.407951e+00    1.622747e+02
  6.411067e+00    1.640704e+02
  6.414183e+00    1.659285e+02
  6.417299e+00    1.676772e+02
  6.420415e+00    1.695004e+02
  6.423531e+00    1.710275e+02
  6.426647e+00    1.727134e+02
  6.429763e+00    1.748428e+02
  6.432879e+00    1.768260e+02
  6.435995e+00    1.783355e+02
  6.439111e+00    1.796749e+02
  6.442227e+00    1.812114e+02
  6.445342e+00    1.832365e+02
  6.448458e+00    1.851253e+02
  6.451574e+00    1.872686e+02
  6.454690e+00    1.903940e+02
  6.457806e+00    1.945546e+02
  6.460922e+00    2.001817e+02
  6.464038e+00    2.082405e+02
  6.467154e+00    2.203636e+02
  6.470270e+00    2.399318e+02
  6.473386e+00    2.730304e+02
  6.476502e+00    3.286075e+02
  6.479618e+00    4.200623e+02
  6.482734e+00    5.675264e+02
  6.485850e+00    7.834080e+02
  6.488966e+00    1.068897e+03
  6.492082e+00    1.382361e+03
  6.495198e+00    1.660751e+03
  6.498314e+00    1.831710e+03
  6.501430e+00    1.861441e+03
  6.504546e+00    1.764679e+03
  6.507661e+00    1.589933e+03
  6.510777e+00    1.376017e+03
  6.513893e+00    1.138842e+03
  6.517009e+00    8.949634e+02
  6.520125e+00    6.679568e+02
  6.523241e+00    4.881899e+02
  6.526357e+00    3.681988e+02
  6.529473e+00    2.985061e+02
  6.532589e+00    2.624335e+02
  6.535705e+00    2.443599e+02
  6.538821e+00    2.354038e+02
  6.541937e+00    2.314925e+02
  6.545053e+00    2.309336e+02
  6.548169e+00    2.339593e+02
  6.551285e+00    2.416646e+02
  6.554401e+00    2.580450e+02
  6.557517e+00    2.910733e+02
  6.560633e+00    3.546076e+02
  6.563749e+00    4.673292e+02
  6.566865e+00    6.496041e+02
  6.569980e+00    9.094193e+02
  6.573096e+00    1.216394e+03
  6.576212e+00    1.496646e+03
  6.579328e+00    1.679044e+03
  6.582444e+00    1.704594e+03
  6.585560e+00    1.590084e+03
  6.588676e+00    1.397255e+03
  6.591792e+00    1.188993e+03
  6.594908e+00    1.000445e+03
  6.598024e+00    8.224890e+02
  6.601140e+00    6.510361e+02
  6.604256e+00    4.905883e+02
  6.607372e+00    3.670920e+02
  6.610488e+00    2.870711e+02
  6.613604e+00    2.424047e+02
  6.616720e+00    2.180844e+02
  6.619836e+00    2.043135e+02
  6.622952e+00    1.953485e+02
  6.626068e+00    1.890500e+02
  6.629184e+00    1.843370e+02
  6.632299e+00    1.804357e+02
  6.635415e+00    1.769676e+02
  6.638531e+00    1.736951e+02
  6.641647e+00    1.706949e+02
  6.644763e+00    1.681466e+02
  6.647879e+00    1.658473e+02
  6.650995e+00    1.635302e+02
  6.654111e+00    1.613621e+02
  6.657227e+00    1.595674e+02
  6.660343e+00    1.579154e+02
  6.663459e+00    1.566613e+02
  6.666575e+00    1.565084e+02
  6.669691e+00    1.558584e+02
  6.672807e+00    1.553688e+02
  6.675923e+00    1.547553e+02
  6.679039e+00    1.541426e+02
  6.682155e+00    1.535798e+02
  6.685271e+00    1.529954e+02
  6.688387e+00    1.524314e+02
  6.691503e+00    1.515639e+02
  6.694618e+00    1.507449e+02
  6.697734e+00    1.499170e+02
  6.700850e+00    1.494205e+02
  6.703966e+00    1.488219e+02
  6.707082e+00    1.481968e+02
  6.710198e+00    1.476049e+02
  6.713314e+00    1.470713e+02
  6.716430e+00    1.466484e+02
  6.719546e+00    1.462560e+02
  6.722662e+00    1.461599e+02
  6.725778e+00    1.461964e+02
  6.728894e+00    1.458740e+02
  6.732010e+00    1.452674e+02
  6.735126e+00    1.446405e+02
  6.738242e+00    1.444186e+02
  6.741358e+00    1.443926e+02
  6.744474e+00    1.443172e+02
  6.747590e+00    1.443171e+02
  6.750706e+00    1.442090e+02
  6.753822e+00    1.434893e+02
  6.756937e+00    1.429335e+02
  6.760053e+00    1.423577e+02
  6.763169e+00    1.417417e+02
  6.766285e+00    1.409454e+02
  6.769401e+00    1.403184e+02
  6.772517e+00    1.399983e+02
  6.775633e+00    1.398129e+02
  6.778749e+00    1.396250e+02
  6.781865e+00    1.393978e+02
  6.784981e+00    1.391367e+02
  6.788097e+00    1.389284e+02
  6.791213e+00    1.386694e+02
  6.794329e+00    1.385039e+02
  6.797445e+00    1.380839e+02
  6.800561e+00    1.377193e+02
  6.803677e+00    1.373990e+02
  6.806793e+00    1.372381e+02
  6.809909e+00    1.371375e+02
  6.813025e+00    1.371451e+02
  6.816141e+00    1.368861e+02
  6.819256e+00    1.368376e+02
  6.822372e+00    1.367624e+02
  6.825488e+00    1.369028e+02
  6.828604e+00    1.369039e+02
  6.831720e+00    1.371477e+02
  6.834836e+00    1.370086e+02
  6.837952e+00    1.371978e+02
  6.841068e+00    1.375008e+02
  6.844184e+00    1.385376e+02
  6.847300e+00    1.405485e+02
  6.850416e+00    1.446793e+02
  6.853532e+00    1.526006e+02
  6.856648e+00    1.658582e+02
  6.859764e+00    1.847503e+02
  6.862880e+00    2.066345e+02
  6.865996e+00    2.258574e+02
  6.869112e+00    2.372799e+02
  6.872228e+00    2.386168e+02
  6.875344e+00    2.290386e+02
  6.878460e+00    2.108272e+02
  6.881575e+00    1.870300e+02
  6.884691e+00    1.659952e+02
  6.887807e+00    1.510877e+02
  6.890923e+00    1.430296e+02
  6.894039e+00    1.395901e+02
  6.897155e+00    1.385805e+02
  6.900271e+00    1.386008e+02
  6.903387e+00    1.393641e+02
  6.906503e+00    1.413658e+02
  6.909619e+00    1.459983e+02
  6.912735e+00    1.551662e+02
  6.915851e+00    1.704546e+02
  6.918967e+00    1.930551e+02
  6.922083e+00    2.221069e+02
  6.925199e+00    2.517594e+02
  6.928315e+00    2.751699e+02
  6.931431e+00    2.837205e+02
  6.934547e+00    2.781176e+02
  6.937663e+00    2.606590e+02
  6.940779e+00    2.365261e+02
  6.943894e+00    2.097507e+02
  6.947010e+00    1.852231e+02
  6.950126e+00    1.645446e+02
  6.953242e+00    1.499121e+02
  6.956358e+00    1.403475e+02
  6.959474e+00    1.351747e+02
  6.962590e+00    1.322545e+02
  6.965706e+00    1.306286e+02
  6.968822e+00    1.297755e+02
  6.971938e+00    1.292011e+02
  6.975054e+00    1.288565e+02
  6.978170e+00    1.282142e+02
  6.981286e+00    1.277594e+02
  6.984402e+00    1.271040e+02
  6.987518e+00    1.267187e+02
  6.990634e+00    1.264521e+02
  6.993750e+00    1.262978e+02
  6.996866e+00    1.258212e+02
  6.999982e+00    1.252420e+02
  7.003097e+00    1.247788e+02
  7.006213e+00    1.246148e+02
  7.009329e+00    1.244691e+02
  7.012445e+00    1.243137e+02
  7.015561e+00    1.240111e+02
  7.018677e+00    1.239341e+02
  7.021793e+00    1.235632e+02
  7.024909e+00    1.233880e+02
  7.028025e+00    1.230951e+02
  7.031141e+00    1.228607e+02
  7.034257e+00    1.223793e+02
  7.037373e+00    1.221057e+02
  7.040489e+00    1.220483e+02
  7.043605e+00    1.220084e+02
  7.046721e+00    1.219189e+02
  7.049837e+00    1.218141e+02
  7.052953e+00    1.216490e+02
  7.056069e+00    1.216209e+02
  7.059185e+00    1.213613e+02
  7.062301e+00    1.212246e+02
  7.065416e+00    1.210084e+02
  7.068532e+00    1.208911e+02
  7.071648e+00    1.205768e+02
  7.074764e+00    1.204693e+02
  7.077880e+00    1.201037e+02
  7.080996e+00    1.200403e+02
  7.084112e+00    1.200874e+02
  7.087228e+00    1.201181e+02
  7.090344e+00    1.199413e+02
  7.093460e+00    1.197005e+02
  7.096576e+00    1.197015e+02
  7.099692e+00    1.197231e+02
  7.102808e+00    1.198042e+02
  7.105924e+00    1.199991e+02
  7.109040e+00    1.199447e+02
  7.112156e+00    1.198132e+02
  7.115272e+00    1.195399e+02
  7.118388e+00    1.193148e+02
  7.121504e+00    1.191740e+02
  7.124620e+00    1.191851e+02
  7.127735e+00    1.192117e+02
  7.130851e+00    1.191236e+02
  7.133967e+00    1.191305e+02
  7.137083e+00    1.191270e+02
  7.140199e+00    1.190907e+02
  7.143315e+00    1.190919e+02
  7.146431e+00    1.192284e+02
  7.149547e+00    1.193889e+02
  7.152663e+00    1.196350e+02
  7.155779e+00    1.196973e+02
  7.158895e+00    1.198408e+02
  7.162011e+00    1.197524e+02
  7.165127e+00    1.199564e+02
  7.168243e+00    1.199678e+02
  7.171359e+00    1.200397e+02
  7.174475e+00    1.199992e+02
  7.177591e+00    1.200546e+02
  7.180707e+00    1.203228e+02
  7.183823e+00    1.205528e+02
  7.186939e+00    1.206920e+02
  7.190054e+00    1.207329e+02
  7.193170e+00    1.211610e+02
  7.196286e+00    1.216627e+02
  7.199402e+00    1.226878e+02
  7.202518e+00    1.241548e+02
  7.205634e+00    1.268478e+02
  7.208750e+00    1.309746e+02
  7.211866e+00    1.378254e+02
  7.214982e+00    1.499920e+02
  7.218098e+00    1.705662e+02
  7.221214e+00    2.014266e+02
  7.224330e+00    2.421598e+02
  7.227446e+00    2.869484e+02
  7.230562e+00    3.265080e+02
  7.233678e+00    3.505401e+02
  7.236794e+00    3.542677e+02
  7.239910e+00    3.415395e+02
  7.243026e+00    3.205358e+02
  7.246142e+00    2.958609e+02
  7.249258e+00    2.692103e+02
  7.252373e+00    2.393523e+02
  7.255489e+00    2.075114e+02
  7.258605e+00    1.773831e+02
  7.261721e+00    1.533755e+02
  7.264837e+00    1.370662e+02
  7.267953e+00    1.278795e+02
  7.271069e+00    1.226196e+02
  7.274185e+00    1.195284e+02
  7.277301e+00    1.175293e+02
  7.280417e+00    1.164742e+02
  7.283533e+00    1.159797e+02
  7.286649e+00    1.154298e+02
  7.289765e+00    1.149329e+02
  7.292881e+00    1.145052e+02
  7.295997e+00    1.140112e+02
  7.299113e+00    1.136127e+02
  7.302229e+00    1.129798e+02
  7.305345e+00    1.125593e+02
  7.308461e+00    1.122409e+02
  7.311577e+00    1.122655e+02
  7.314692e+00    1.121567e+02
  7.317808e+00    1.119849e+02
  7.320924e+00    1.117710e+02
  7.324040e+00    1.115912e+02
  7.327156e+00    1.115401e+02
  7.330272e+00    1.116127e+02
  7.333388e+00    1.115693e+02
  7.336504e+00    1.113394e+02
  7.339620e+00    1.109171e+02
  7.342736e+00    1.107879e+02
  7.345852e+00    1.105438e+02
  7.348968e+00    1.102362e+02
  7.352084e+00    1.099631e+02
  7.355200e+00    1.098168e+02
  7.358316e+00    1.094674e+02
  7.361432e+00    1.090151e+02
  7.364548e+00    1.086015e+02
  7.367664e+00    1.084071e+02
  7.370780e+00    1.083570e+02
  7.373896e+00    1.083640e+02
  7.377011e+00    1.083559e+02
  7.380127e+00    1.085012e+02
  7.383243e+00    1.085119e+02
  7.386359e+00    1.082842e+02
  7.389475e+00    1.080835e+02
  7.392591e+00    1.082624e+02
  7.395707e+00    1.082872e+02
  7.398823e+00    1.083006e+02
  7.401939e+00    1.079114e+02
  7.405055e+00    1.077020e+02
  7.408171e+00    1.073359e+02
  7.411287e+00    1.070715e+02
  7.414403e+00    1.069720e+02
  7.417519e+00    1.067599e+02
  7.420635e+00    1.067225e+02
  7.423751e+00    1.066400e+02
  7.426867e+00    1.065919e+02
  7.429983e+00    1.065157e+02
  7.433099e+00    1.065441e+02
  7.436215e+00    1.067859e+02
  7.439330e+00    1.070026e+02
  7.442446e+00    1.075057e+02
  7.445562e+00    1.078550e+02
  7.448678e+00    1.079904e+02
  7.451794e+00    1.078831e+02
  7.454910e+00    1.075637e+02
  7.458026e+00    1.071360e+02
  7.461142e+00    1.066678e+02
  7.464258e+00    1.063031e+02
  7.467374e+00    1.061476e+02
  7.470490e+00    1.061672e+02
  7.473606e+00    1.059586e+02
  7.476722e+00    1.056949e+02
  7.479838e+00    1.056399e+02
  7.482954e+00    1.059116e+02
  7.486070e+00    1.057640e+02
  7.489186e+00    1.057095e+02
  7.492302e+00    1.057831e+02
  7.495418e+00    1.062542e+02
  7.498534e+00    1.064666e+02
  7.501649e+00    1.068529e+02
  7.504765e+00    1.068552e+02
  7.507881e+00    1.068106e+02
  7.510997e+00    1.063662e+02
  7.514113e+00    1.061574e+02
  7.517229e+00    1.060905e+02
  7.520345e+00    1.062602e+02
  7.523461e+00    1.063206e+02
  7.526577e+00    1.062466e+02
  7.529693e+00    1.061042e+02
  7.532809e+00    1.059799e+02
  7.535925e+00    1.062339e+02
  7.539041e+00    1.065728e+02
  7.542157e+00    1.066596e+02
  7.545273e+00    1.064905e+02
  7.548389e+00    1.064632e+02
  7.551505e+00    1.065572e+02
  7.554621e+00    1.069544e+02
  7.557737e+00    1.074021e+02
  7.560853e+00    1.077951e+02
  7.563968e+00    1.080312e+02
  7.567084e+00    1.082610e+02
  7.570200e+00    1.086740e+02
  7.573316e+00    1.090883e+02
  7.576432e+00    1.098350e+02
  7.579548e+00    1.109583e+02
  7.582664e+00    1.124999e+02
  7.585780e+00    1.148479e+02
  7.588896e+00    1.190441e+02
  7.592012e+00    1.265062e+02
  7.595128e+00    1.380046e+02
  7.598244e+00    1.544402e+02
  7.601360e+00    1.760346e+02
  7.604476e+00    2.018501e+02
  7.607592e+00    2.295627e+02
  7.610708e+00    2.570578e+02
  7.613824e+00    2.788260e+02
  7.616940e+00    2.917377e+02
  7.620056e+00    2.960991e+02
  7.623172e+00    2.909544e+02
  7.626287e+00    2.795153e+02
  7.629403e+00    2.621501e+02
  7.632519e+00    2.417130e+02
  7.635635e+00    2.187300e+02
  7.638751e+00    1.946831e+02
  7.641867e+00    1.713386e+02
  7.644983e+00    1.507533e+02
  7.648099e+00    1.344674e+02
  7.651215e+00    1.230632e+02
  7.654331e+00    1.162996e+02
  7.657447e+00    1.127116e+02
  7.660563e+00    1.107112e+02
  7.663679e+00    1.097340e+02
  7.666795e+00    1.087432e+02
  7.669911e+00    1.081418e+02
  7.673027e+00    1.074723e+02
  7.676143e+00    1.071063e+02
  7.679259e+00    1.064861e+02
  7.682375e+00    1.061487e+02
  7.685491e+00    1.058922e+02
  7.688606e+00    1.056770e+02
  7.691722e+00    1.053775e+02
  7.694838e+00    1.052037e+02
  7.697954e+00    1.050763e+02
  7.701070e+00    1.048909e+02
  7.704186e+00    1.046615e+02
  7.707302e+00    1.045202e+02
  7.710418e+00    1.043374e+02
  7.713534e+00    1.042795e+02
  7.716650e+00    1.041401e+02
  7.719766e+00    1.039722e+02
  7.722882e+00    1.038502e+02
  7.725998e+00    1.039539e+02
  7.729114e+00    1.040688e+02
  7.732230e+00    1.040555e+02
  7.735346e+00    1.037103e+02
  7.738462e+00    1.034667e+02
  7.741578e+00    1.034511e+02
  7.744694e+00    1.034461e+02
  7.747810e+00    1.034174e+02
  7.750925e+00    1.032337e+02
  7.754041e+00    1.032311e+02
  7.757157e+00    1.034554e+02
  7.760273e+00    1.037546e+02
  7.763389e+00    1.036197e+02
  7.766505e+00    1.032348e+02
  7.769621e+00    1.032903e+02
  7.772737e+00    1.034084e+02
  7.775853e+00    1.034256e+02
  7.778969e+00    1.031213e+02
  7.782085e+00    1.033168e+02
  7.785201e+00    1.033474e+02
  7.788317e+00    1.034870e+02
  7.791433e+00    1.030652e+02
  7.794549e+00    1.028404e+02
  7.797665e+00    1.027280e+02
  7.800781e+00    1.029672e+02
  7.803897e+00    1.023693e+02
  7.807013e+00    1.021793e+02
  7.810129e+00    1.021457e+02
  7.813244e+00    1.029862e+02
  7.816360e+00    1.029225e+02
  7.819476e+00    1.027945e+02
  7.822592e+00    1.029626e+02
  7.825708e+00    1.030639e+02
  7.828824e+00    1.030431e+02
  7.831940e+00    1.030328e+02
  7.835056e+00    1.030286e+02
  7.838172e+00    1.028957e+02
  7.841288e+00    1.023763e+02
  7.844404e+00    1.021819e+02
  7.847520e+00    1.022784e+02
  7.850636e+00    1.021840e+02
  7.853752e+00    1.022491e+02
  7.856868e+00    1.023274e+02
  7.859984e+00    1.026747e+02
  7.863100e+00    1.027861e+02
  7.866216e+00    1.028773e+02
  7.869332e+00    1.029653e+02
  7.872448e+00    1.028910e+02
  7.875563e+00    1.029020e+02
  7.878679e+00    1.029970e+02
  7.881795e+00    1.030334e+02
  7.884911e+00    1.030238e+02
  7.888027e+00    1.035170e+02
  7.891143e+00    1.039866e+02
  7.894259e+00    1.041056e+02
  7.897375e+00    1.038150e+02
  7.900491e+00    1.035099e+02
  7.903607e+00    1.034342e+02
  7.906723e+00    1.037213e+02
  7.909839e+00    1.041501e+02
  7.912955e+00    1.050150e+02
  7.916071e+00    1.065340e+02
  7.919187e+00    1.092861e+02
  7.922303e+00    1.136477e+02
  7.925419e+00    1.185867e+02
  7.928535e+00    1.247531e+02
  7.931651e+00    1.306960e+02
  7.934767e+00    1.362603e+02
  7.937882e+00    1.400536e+02
  7.940998e+00    1.416997e+02
  7.944114e+00    1.412338e+02
  7.947230e+00    1.408247e+02
  7.950346e+00    1.391929e+02
  7.953462e+00    1.366086e+02
  7.956578e+00    1.325412e+02
  7.959694e+00    1.268168e+02
  7.962810e+00    1.208657e+02
  7.965926e+00    1.150534e+02
  7.969042e+00    1.110733e+02
  7.972158e+00    1.080798e+02
  7.975274e+00    1.062789e+02
  7.978390e+00    1.054345e+02
  7.981506e+00    1.049125e+02
  7.984622e+00    1.048466e+02
  7.987738e+00    1.051134e+02
  7.990854e+00    1.053056e+02
  7.993970e+00    1.052540e+02
  7.997086e+00    1.051750e+02
  8.000201e+00    1.050877e+02
  8.003317e+00    1.052385e+02
  8.006433e+00    1.051907e+02
  8.009549e+00    1.053249e+02
  8.012665e+00    1.050965e+02
  8.015781e+00    1.051953e+02
  8.018897e+00    1.054134e+02
  8.022013e+00    1.054113e+02
  8.025129e+00    1.053128e+02
  8.028245e+00    1.050176e+02
  8.031361e+00    1.051607e+02
  8.034477e+00    1.050799e+02
  8.037593e+00    1.052039e+02
  8.040709e+00    1.052697e+02
  8.043825e+00    1.055426e+02
  8.046941e+00    1.057201e+02
  8.050057e+00    1.056066e+02
  8.053173e+00    1.053968e+02
  8.056289e+00    1.052542e+02
  8.059405e+00    1.055376e+02
  8.062520e+00    1.060000e+02
  8.065636e+00    1.059058e+02
  8.068752e+00    1.055129e+02
  8.071868e+00    1.053268e+02
  8.074984e+00    1.055113e+02
  8.078100e+00    1.057561e+02
  8.081216e+00    1.057435e+02
  8.084332e+00    1.060928e+02
  8.087448e+00    1.063017e+02
  8.090564e+00    1.067172e+02
  8.093680e+00    1.066370e+02
  8.096796e+00    1.069822e+02
  8.099912e+00    1.074333e+02
  8.103028e+00    1.079433e+02
  8.106144e+00    1.079153e+02
  8.109260e+00    1.076481e+02
  8.112376e+00    1.076898e+02
  8.115492e+00    1.082768e+02
  8.118608e+00    1.085091e+02
  8.121724e+00    1.085189e+02
  8.124839e+00    1.085061e+02
  8.127955e+00    1.091782e+02
  8.131071e+00    1.096186e+02
  8.134187e+00    1.097010e+02
  8.137303e+00    1.098160e+02
  8.140419e+00    1.104402e+02
  8.143535e+00    1.112884e+02
  8.146651e+00    1.117548e+02
  8.149767e+00    1.120135e+02
  8.152883e+00    1.125530e+02
  8.155999e+00    1.131285e+02
  8.159115e+00    1.140776e+02
  8.162231e+00    1.147959e+02
  8.165347e+00    1.160367e+02
  8.168463e+00    1.171466e+02
  8.171579e+00    1.187218e+02
  8.174695e+00    1.209151e+02
  8.177811e+00    1.241955e+02
  8.180927e+00    1.290971e+02
  8.184043e+00    1.376130e+02
  8.187158e+00    1.520150e+02
  8.190274e+00    1.748120e+02
  8.193390e+00    2.097309e+02
  8.196506e+00    2.565716e+02
  8.199622e+00    3.107657e+02
  8.202738e+00    3.646219e+02
  8.205854e+00    4.067473e+02
  8.208970e+00    4.285366e+02
  8.212086e+00    4.290185e+02
  8.215202e+00    4.139637e+02
  8.218318e+00    3.896121e+02
  8.221434e+00    3.633784e+02
  8.224550e+00    3.315089e+02
  8.227666e+00    2.951093e+02
  8.230782e+00    2.561876e+02
  8.233898e+00    2.170893e+02
  8.237014e+00    1.827406e+02
  8.240130e+00    1.570662e+02
  8.243246e+00    1.403787e+02
  8.246362e+00    1.302763e+02
  8.249477e+00    1.247300e+02
  8.252593e+00    1.216611e+02
  8.255709e+00    1.199835e+02
  8.258825e+00    1.188680e+02
  8.261941e+00    1.182638e+02
  8.265057e+00    1.176090e+02
  8.268173e+00    1.169614e+02
  8.271289e+00    1.164329e+02
  8.274405e+00    1.158581e+02
  8.277521e+00    1.154448e+02
  8.280637e+00    1.153828e+02
  8.283753e+00    1.156182e+02
  8.286869e+00    1.157785e+02
  8.289985e+00    1.155101e+02
  8.293101e+00    1.152044e+02
  8.296217e+00    1.144095e+02
  8.299333e+00    1.141947e+02
  8.302449e+00    1.139069e+02
  8.305565e+00    1.140750e+02
  8.308681e+00    1.134220e+02
  8.311796e+00    1.134333e+02
  8.314912e+00    1.130889e+02
  8.318028e+00    1.128880e+02
  8.321144e+00    1.126036e+02
  8.324260e+00    1.127749e+02
  8.327376e+00    1.132334e+02
  8.330492e+00    1.134275e+02
  8.333608e+00    1.133157e+02
  8.336724e+00    1.134011e+02
  8.339840e+00    1.139416e+02
  8.342956e+00    1.140759e+02
  8.346072e+00    1.138266e+02
  8.349188e+00    1.138274e+02
  8.352304e+00    1.140734e+02
  8.355420e+00    1.142269e+02
  8.358536e+00    1.142412e+02
  8.361652e+00    1.145134e+02
  8.364768e+00    1.151537e+02
  8.367884e+00    1.157061e+02
  8.371000e+00    1.162497e+02
  8.374115e+00    1.174473e+02
  8.377231e+00    1.193551e+02
  8.380347e+00    1.216490e+02
  8.383463e+00    1.248092e+02
  8.386579e+00    1.302896e+02
  8.389695e+00    1.383150e+02
  8.392811e+00    1.491454e+02
  8.395927e+00    1.615605e+02
  8.399043e+00    1.736854e+02
  8.402159e+00    1.832415e+02
  8.405275e+00    1.892678e+02
  8.408391e+00    1.893599e+02
  8.411507e+00    1.856522e+02
  8.414623e+00    1.792718e+02
  8.417739e+00    1.710464e+02
  8.420855e+00    1.625239e+02
  8.423971e+00    1.537139e+02
  8.427087e+00    1.451193e+02
  8.430203e+00    1.376277e+02
  8.433319e+00    1.312865e+02
  8.436434e+00    1.265097e+02
  8.439550e+00    1.234680e+02
  8.442666e+00    1.214418e+02
  8.445782e+00    1.201482e+02
  8.448898e+00    1.198206e+02
  8.452014e+00    1.197455e+02
  8.455130e+00    1.196897e+02
  8.458246e+00    1.192600e+02
  8.461362e+00    1.193020e+02
  8.464478e+00    1.196144e+02
  8.467594e+00    1.195541e+02
  8.470710e+00    1.193561e+02
  8.473826e+00    1.195943e+02
  8.476942e+00    1.200416e+02
  8.480058e+00    1.208556e+02
  8.483174e+00    1.205297e+02
  8.486290e+00    1.200896e+02
  8.489406e+00    1.196274e+02
  8.492522e+00    1.196762e+02
  8.495638e+00    1.199853e+02
  8.498753e+00    1.205767e+02
  8.501869e+00    1.214972e+02
  8.504985e+00    1.221340e+02
  8.508101e+00    1.224069e+02
  8.511217e+00    1.228537e+02
  8.514333e+00    1.233010e+02
  8.517449e+00    1.245642e+02
  8.520565e+00    1.256227e+02
  8.523681e+00    1.263804e+02
  8.526797e+00    1.267346e+02
  8.529913e+00    1.276836e+02
  8.533029e+00    1.290973e+02
  8.536145e+00    1.298969e+02
  8.539261e+00    1.311818e+02
  8.542377e+00    1.329318e+02
  8.545493e+00    1.360256e+02
  8.548609e+00    1.398133e+02
  8.551725e+00    1.454187e+02
  8.554841e+00    1.541042e+02
  8.557957e+00    1.672905e+02
  8.561072e+00    1.875854e+02
  8.564188e+00    2.201458e+02
  8.567304e+00    2.674908e+02
  8.570420e+00    3.261746e+02
  8.573536e+00    3.974133e+02
  8.576652e+00    4.653107e+02
  8.579768e+00    5.132437e+02
  8.582884e+00    5.341708e+02
  8.586000e+00    5.245065e+02
  8.589116e+00    4.932103e+02
  8.592232e+00    4.545220e+02
  8.595348e+00    4.116249e+02
  8.598464e+00    3.700557e+02
  8.601580e+00    3.300938e+02
  8.604696e+00    2.886791e+02
  8.607812e+00    2.471393e+02
  8.610928e+00    2.120205e+02
  8.614044e+00    1.833883e+02
  8.617160e+00    1.629712e+02
  8.620276e+00    1.510189e+02
  8.623391e+00    1.444137e+02
  8.626507e+00    1.409178e+02
  8.629623e+00    1.408890e+02
  8.632739e+00    1.443377e+02
  8.635855e+00    1.506256e+02
  8.638971e+00    1.602194e+02
  8.642087e+00    1.698054e+02
  8.645203e+00    1.776393e+02
  8.648319e+00    1.826678e+02
  8.651435e+00    1.831037e+02
  8.654551e+00    1.801554e+02
  8.657667e+00    1.736238e+02
  8.660783e+00    1.624918e+02
  8.663899e+00    1.499666e+02
  8.667015e+00    1.388543e+02
  8.670131e+00    1.311402e+02
  8.673247e+00    1.268378e+02
  8.676363e+00    1.245992e+02
  8.679479e+00    1.233502e+02
  8.682595e+00    1.224479e+02
  8.685710e+00    1.216462e+02
  8.688826e+00    1.207321e+02
  8.691942e+00    1.201580e+02
  8.695058e+00    1.196629e+02
  8.698174e+00    1.192062e+02
  8.701290e+00    1.187349e+02
  8.704406e+00    1.185027e+02
  8.707522e+00    1.184420e+02
  8.710638e+00    1.186004e+02
  8.713754e+00    1.184985e+02
  8.716870e+00    1.184268e+02
  8.719986e+00    1.189070e+02
  8.723102e+00    1.184933e+02
  8.726218e+00    1.175769e+02
  8.729334e+00    1.163269e+02
  8.732450e+00    1.160436e+02
  8.735566e+00    1.162438e+02
  8.738682e+00    1.158957e+02
  8.741798e+00    1.154456e+02
  8.744914e+00    1.157541e+02
  8.748029e+00    1.157460e+02
  8.751145e+00    1.156580e+02
  8.754261e+00    1.157122e+02
  8.757377e+00    1.162444e+02
  8.760493e+00    1.166479e+02
  8.763609e+00    1.163574e+02
  8.766725e+00    1.158132e+02
  8.769841e+00    1.157248e+02
  8.772957e+00    1.159621e+02
  8.776073e+00    1.168184e+02
  8.779189e+00    1.167369e+02
  8.782305e+00    1.164275e+02
  8.785421e+00    1.159825e+02
  8.788537e+00    1.158037e+02
  8.791653e+00    1.161702e+02
  8.794769e+00    1.165603e+02
  8.797885e+00    1.173561e+02
  8.801001e+00    1.180632e+02
  8.804117e+00    1.183367e+02
  8.807233e+00    1.183032e+02
  8.810348e+00    1.182474e+02
  8.813464e+00    1.191998e+02
  8.816580e+00    1.204577e+02
  8.819696e+00    1.224107e+02
  8.822812e+00    1.244572e+02
  8.825928e+00    1.285009e+02
  8.829044e+00    1.359186e+02
  8.832160e+00    1.491569e+02
  8.835276e+00    1.683917e+02
  8.838392e+00    1.955540e+02
  8.841508e+00    2.315063e+02
  8.844624e+00    2.696774e+02
  8.847740e+00    3.066489e+02
  8.850856e+00    3.357296e+02
  8.853972e+00    3.487308e+02
  8.857088e+00    3.515988e+02
  8.860204e+00    3.465990e+02
  8.863320e+00    3.382504e+02
  8.866436e+00    3.251254e+02
  8.869552e+00    3.038085e+02
  8.872667e+00    2.762635e+02
  8.875783e+00    2.435305e+02
  8.878899e+00    2.144777e+02
  8.882015e+00    1.852893e+02
  8.885131e+00    1.626505e+02
  8.888247e+00    1.445433e+02
  8.891363e+00    1.296492e+02
  8.894479e+00    1.209484e+02
  8.897595e+00    1.153303e+02
  8.900711e+00    1.130373e+02
  8.903827e+00    1.115428e+02
  8.906943e+00    1.109016e+02
  8.910059e+00    1.104390e+02
  8.913175e+00    1.096508e+02
  8.916291e+00    1.084282e+02
  8.919407e+00    1.074927e+02
  8.922523e+00    1.068893e+02
  8.925639e+00    1.060432e+02
  8.928755e+00    1.053124e+02
  8.931871e+00    1.051011e+02
  8.934986e+00    1.053214e+02
  8.938102e+00    1.050495e+02
  8.941218e+00    1.040679e+02
  8.944334e+00    1.036125e+02
  8.947450e+00    1.036997e+02
  8.950566e+00    1.046388e+02
  8.953682e+00    1.049055e+02
  8.956798e+00    1.047482e+02
  8.959914e+00    1.052109e+02
  8.963030e+00    1.051732e+02
  8.966146e+00    1.044591e+02
  8.969262e+00    1.041834e+02
  8.972378e+00    1.043913e+02
  8.975494e+00    1.041597e+02
  8.978610e+00    1.034697e+02
  8.981726e+00    1.040999e+02
  8.984842e+00    1.043179e+02
  8.987958e+00    1.038943e+02
  8.991074e+00    1.024795e+02
  8.994190e+00    1.021038e+02
  8.997305e+00    1.021707e+02
  9.000421e+00    1.020820e+02
  9.003537e+00    1.013268e+02
  9.006653e+00    1.006091e+02
  9.009769e+00    1.006681e+02
  9.012885e+00    1.004434e+02
  9.016001e+00    1.002265e+02
  9.019117e+00    1.000603e+02
  9.022233e+00    9.906875e+01
  9.025349e+00    9.784574e+01
  9.028465e+00    9.596918e+01
  9.031581e+00    9.594231e+01
  9.034697e+00    9.610395e+01
  9.037813e+00    9.641289e+01
  9.040929e+00    9.618227e+01
  9.044045e+00    9.536936e+01
  9.047161e+00    9.470975e+01
  9.050277e+00    9.424567e+01
  9.053393e+00    9.429153e+01
  9.056509e+00    9.351856e+01
  9.059624e+00    9.345143e+01
  9.062740e+00    9.366528e+01
  9.065856e+00    9.419482e+01
  9.068972e+00    9.484022e+01
  9.072088e+00    9.618085e+01
  9.075204e+00    1.000147e+02
  9.078320e+00    1.051893e+02
  9.081436e+00    1.141292e+02
  9.084552e+00    1.271301e+02
  9.087668e+00    1.413683e+02
  9.090784e+00    1.561849e+02
  9.093900e+00    1.659874e+02
  9.097016e+00    1.662443e+02
  9.100132e+00    1.624452e+02
  9.103248e+00    1.544642e+02
  9.106364e+00    1.481892e+02
  9.109480e+00    1.443145e+02
  9.112596e+00    1.400161e+02
  9.115712e+00    1.349805e+02
  9.118828e+00    1.296707e+02
  9.121943e+00    1.242745e+02
  9.125059e+00    1.134969e+02
  9.128175e+00    1.055735e+02
  9.131291e+00    9.936765e+01
  9.134407e+00    9.542483e+01
  9.137523e+00    9.100276e+01
  9.140639e+00    8.901467e+01
  9.143755e+00    8.705111e+01
  9.146871e+00    8.734186e+01
  9.149987e+00    8.692724e+01
  9.153103e+00    8.574586e+01
  9.156219e+00    8.551900e+01
  9.159335e+00    8.547319e+01
  9.162451e+00    8.570657e+01
  9.165567e+00    8.520132e+01
  9.168683e+00    8.792780e+01
  9.171799e+00    9.099491e+01
  9.174915e+00    9.267744e+01
  9.178031e+00    9.236983e+01
  9.181147e+00    9.368424e+01
  9.184262e+00    9.466323e+01
  9.187378e+00    9.319395e+01
  9.190494e+00    9.167548e+01
  9.193610e+00    9.317973e+01
  9.196726e+00    9.492655e+01
  9.199842e+00    9.781555e+01
  9.202958e+00    1.009059e+02
  9.206074e+00    1.035561e+02
  9.209190e+00    1.036388e+02
  9.212306e+00    1.035914e+02
  9.215422e+00    1.063635e+02
  9.218538e+00    1.111771e+02
  9.221654e+00    1.226921e+02
  9.224770e+00    1.352357e+02
  9.227886e+00    1.494109e+02
  9.231002e+00    1.711807e+02
  9.234118e+00    1.825988e+02
  9.237234e+00    1.871422e+02
  9.240350e+00    1.864398e+02
  9.243466e+00    1.721934e+02
  9.246581e+00    1.624250e+02
  9.249697e+00    1.530437e+02
  9.252813e+00    1.336991e+02
  9.255929e+00    1.180034e+02
  9.259045e+00    1.040465e+02
  9.262161e+00    8.776542e+01
  9.265277e+00    7.536433e+01
  9.268393e+00    7.035049e+01
  9.271509e+00    6.675416e+01
  9.274625e+00    6.377312e+01
  9.277741e+00    6.256285e+01
  9.280857e+00    6.046009e+01
  9.283973e+00    5.582599e+01
  9.287089e+00    4.961339e+01
  9.290205e+00    4.371686e+01
  9.293321e+00    3.630162e+01
  9.296437e+00    3.009358e+01
  9.299553e+00    2.779044e+01
  9.302669e+00    2.496711e+01
  9.305785e+00    1.856253e+01
  9.308900e+00    1.465580e+01
  9.312016e+00    1.145235e+01
  9.315132e+00    7.814282e+00
  9.318248e+00    5.172400e+00
  9.321364e+00    2.716258e+00
  9.324480e+00   -1.856304e-01
  9.327596e+00   -1.959659e+00
  9.330712e+00   -6.354567e-01
  9.333828e+00    1.726111e-01
  9.336944e+00   -2.074666e-01
  9.340060e+00    1.484990e+00
  9.343176e+00    1.697190e+00
  9.346292e+00    0.000000e+00
